 Eigenvalues (hartree) for nkpt= 189  k points:
 kpt#   1, nband= 18, wtk=  0.00058, kpt=  0.0000  0.0000  0.0000 (reduced coord)
  -3.73274   -2.27799   -2.27799   -2.27768   -0.54270   -0.51153   -0.15507   -0.08028
  -0.08028   -0.01966   -0.01276   -0.01276   -0.00389   -0.00389    0.00597    0.06267
   0.06267    0.17390
 kpt#   2, nband= 18, wtk=  0.00347, kpt=  0.0833  0.0000  0.0000 (reduced coord)
  -3.73274   -2.27799   -2.27799   -2.27768   -0.54098   -0.51079   -0.15271   -0.08530
  -0.08011   -0.03176   -0.02168   -0.01850   -0.00120    0.00294    0.00973    0.05589
   0.06109    0.18698
 kpt#   3, nband= 18, wtk=  0.00347, kpt=  0.1667  0.0000  0.0000 (reduced coord)
  -3.73274   -2.27800   -2.27799   -2.27767   -0.53609   -0.50877   -0.14632   -0.09741
  -0.07965   -0.06318   -0.03410   -0.02044   -0.00144    0.00905    0.01340    0.04510
   0.05794    0.21655
 kpt#   4, nband= 18, wtk=  0.00347, kpt=  0.2500  0.0000  0.0000 (reduced coord)
  -3.73274   -2.27801   -2.27799   -2.27767   -0.52880   -0.50617   -0.13963   -0.11255
  -0.09065   -0.07908   -0.04547   -0.03155   -0.00245    0.01054    0.01468    0.04234
   0.05601    0.23650
 kpt#   5, nband= 18, wtk=  0.00347, kpt=  0.3333  0.0000  0.0000 (reduced coord)
  -3.73274   -2.27802   -2.27800   -2.27767   -0.52046   -0.50401   -0.14629   -0.12379
  -0.09915   -0.07863   -0.05437   -0.04709   -0.00356    0.00871    0.01350    0.04569
   0.05597    0.22359
 kpt#   6, nband= 18, wtk=  0.00347, kpt=  0.4167  0.0000  0.0000 (reduced coord)
  -3.73274   -2.27803   -2.27800   -2.27767   -0.51288   -0.50347   -0.16091   -0.13058
  -0.09041   -0.07840   -0.06123   -0.05997   -0.00445    0.00636    0.01064    0.04961
   0.05660    0.21258
 kpt#   7, nband= 18, wtk=  0.00174, kpt=  0.5000  0.0000  0.0000 (reduced coord)
  -3.73274   -2.27803   -2.27800   -2.27767   -0.50892   -0.50435   -0.16687   -0.13331
  -0.08203   -0.07835   -0.06981   -0.06186   -0.00482    0.00538    0.00902    0.05121
   0.05691    0.20887
 kpt#   8, nband= 18, wtk=  0.00347, kpt=  0.0833  0.0833  0.0000 (reduced coord)
  -3.73274   -2.27799   -2.27799   -2.27768   -0.54094   -0.51085   -0.15241   -0.08526
  -0.08015   -0.03213   -0.02157   -0.01905   -0.00116    0.00290    0.00979    0.05616
   0.06106    0.18768
 kpt#   9, nband= 18, wtk=  0.00694, kpt=  0.1667  0.0833  0.0000 (reduced coord)
  -3.73274   -2.27800   -2.27799   -2.27767   -0.53759   -0.50952   -0.14778   -0.09346
  -0.08021   -0.05358   -0.03310   -0.01988   -0.00010    0.00768    0.01275    0.04945
   0.05684    0.20942
 kpt#  10, nband= 18, wtk=  0.00694, kpt=  0.2500  0.0833  0.0000 (reduced coord)
  -3.73274   -2.27801   -2.27799   -2.27767   -0.53147   -0.50722   -0.14081   -0.10592
  -0.08191   -0.07962   -0.04600   -0.02671   -0.00031    0.01099    0.01460    0.04373
   0.05305    0.23727
 kpt#  11, nband= 18, wtk=  0.00694, kpt=  0.3333  0.0833  0.0000 (reduced coord)
  -3.73274   -2.27802   -2.27800   -2.27767   -0.52362   -0.50481   -0.13996   -0.11856
  -0.09810   -0.08108   -0.05669   -0.04013   -0.00089    0.01033    0.01457    0.04242
   0.05345    0.23785
 kpt#  12, nband= 18, wtk=  0.00694, kpt=  0.4167  0.0833  0.0000 (reduced coord)
  -3.73274   -2.27803   -2.27800   -2.27767   -0.51562   -0.50338   -0.15305   -0.12707
  -0.09497   -0.08081   -0.06540   -0.05444   -0.00129    0.00757    0.01244    0.04568
   0.05430    0.22476
 kpt#  13, nband= 18, wtk=  0.00694, kpt=  0.5000  0.0833  0.0000 (reduced coord)
  -3.73274   -2.27803   -2.27800   -2.27767   -0.50951   -0.50378   -0.16357   -0.13186
  -0.08597   -0.07928   -0.07105   -0.06577   -0.00165    0.00607    0.00978    0.05012
   0.05352    0.21694
 kpt#  14, nband= 18, wtk=  0.00694, kpt= -0.4167  0.0833  0.0000 (reduced coord)
  -3.73274   -2.27803   -2.27800   -2.27767   -0.50971   -0.50357   -0.16344   -0.13186
  -0.08632   -0.07976   -0.07100   -0.06554   -0.00159    0.00605    0.00979    0.05016
   0.05421    0.21652
 kpt#  15, nband= 18, wtk=  0.00694, kpt= -0.3333  0.0833  0.0000 (reduced coord)
  -3.73274   -2.27803   -2.27800   -2.27767   -0.51587   -0.50309   -0.15262   -0.12733
  -0.09594   -0.08121   -0.06510   -0.05444   -0.00116    0.00756    0.01224    0.04672
   0.05525    0.22378
 kpt#  16, nband= 18, wtk=  0.00694, kpt= -0.2500  0.0833  0.0000 (reduced coord)
  -3.73274   -2.27802   -2.27800   -2.27767   -0.52386   -0.50451   -0.13976   -0.11925
  -0.09861   -0.08132   -0.05640   -0.03989   -0.00075    0.01042    0.01391    0.04440
   0.05391    0.23745
 kpt#  17, nband= 18, wtk=  0.00694, kpt= -0.1667  0.0833  0.0000 (reduced coord)
  -3.73274   -2.27801   -2.27799   -2.27767   -0.53166   -0.50697   -0.14170   -0.10569
  -0.08228   -0.07964   -0.04577   -0.02573   -0.00021    0.01125    0.01376    0.04564
   0.05267    0.23532
 kpt#  18, nband= 18, wtk=  0.00347, kpt= -0.0833  0.0833  0.0000 (reduced coord)
  -3.73274   -2.27800   -2.27799   -2.27767   -0.53772   -0.50935   -0.14859   -0.09329
  -0.08025   -0.05348   -0.03303   -0.01839   -0.00009    0.00778    0.01231    0.04975
   0.05667    0.20725
 kpt#  19, nband= 18, wtk=  0.00347, kpt=  0.1667  0.1667  0.0000 (reduced coord)
  -3.73274   -2.27800   -2.27799   -2.27767   -0.53593   -0.50898   -0.14537   -0.09767
  -0.07978   -0.06351   -0.03389   -0.02210   -0.00135    0.00894    0.01314    0.04700
   0.05808    0.21741
 kpt#  20, nband= 18, wtk=  0.00694, kpt=  0.2500  0.1667  0.0000 (reduced coord)
  -3.73274   -2.27801   -2.27799   -2.27767   -0.53137   -0.50734   -0.14034   -0.10686
  -0.08168   -0.07921   -0.04585   -0.02752   -0.00014    0.01088    0.01373    0.04717
   0.05236    0.23723
 kpt#  21, nband= 18, wtk=  0.00694, kpt=  0.3333  0.1667  0.0000 (reduced coord)
  -3.73274   -2.27801   -2.27800   -2.27767   -0.52470   -0.50517   -0.13757   -0.11660
  -0.09437   -0.08423   -0.06017   -0.03724    0.00110    0.01195    0.01355    0.04371
   0.05062    0.24872
 kpt#  22, nband= 18, wtk=  0.00694, kpt=  0.4167  0.1667  0.0000 (reduced coord)
  -3.73274   -2.27802   -2.27800   -2.27767   -0.51717   -0.50335   -0.14461   -0.12446
  -0.09804   -0.08661   -0.07101   -0.04999    0.00208    0.00902    0.01355    0.04100
   0.05277    0.24224
 kpt#  23, nband= 18, wtk=  0.00694, kpt=  0.5000  0.1667  0.0000 (reduced coord)
  -3.73274   -2.27803   -2.27800   -2.27767   -0.51046   -0.50287   -0.15518   -0.12920
  -0.09788   -0.08134   -0.07953   -0.06231    0.00252    0.00678    0.01194    0.04402
   0.05177    0.23370
 kpt#  24, nband= 18, wtk=  0.00694, kpt= -0.4167  0.1667  0.0000 (reduced coord)
  -3.73274   -2.27803   -2.27801   -2.27767   -0.50719   -0.50343   -0.15952   -0.13033
  -0.09783   -0.08362   -0.07347   -0.07204    0.00184    0.00761    0.01035    0.04613
   0.05122    0.22983
 kpt#  25, nband= 18, wtk=  0.00694, kpt= -0.3333  0.1667  0.0000 (reduced coord)
  -3.73274   -2.27803   -2.27800   -2.27767   -0.51088   -0.50243   -0.15469   -0.12840
  -0.09839   -0.08417   -0.07884   -0.06249    0.00262    0.00674    0.01209    0.04251
   0.05496    0.23281
 kpt#  26, nband= 18, wtk=  0.00694, kpt= -0.2500  0.1667  0.0000 (reduced coord)
  -3.73274   -2.27802   -2.27800   -2.27767   -0.51760   -0.50286   -0.14376   -0.12332
  -0.10050   -0.08822   -0.07051   -0.05036    0.00216    0.00900    0.01366    0.04029
   0.05577    0.24176
 kpt#  27, nband= 18, wtk=  0.00347, kpt= -0.1667  0.1667  0.0000 (reduced coord)
  -3.73274   -2.27801   -2.27800   -2.27767   -0.52508   -0.50470   -0.13794   -0.11478
  -0.09746   -0.08451   -0.05979   -0.03668    0.00112    0.01229    0.01343    0.04294
   0.05247    0.24969
 kpt#  28, nband= 18, wtk=  0.00347, kpt=  0.2500  0.2500  0.0000 (reduced coord)
  -3.73274   -2.27801   -2.27799   -2.27767   -0.52854   -0.50649   -0.13866   -0.11582
  -0.08713   -0.07922   -0.04540   -0.03304   -0.00244    0.01027    0.01334    0.04697
   0.05683    0.23476
 kpt#  29, nband= 18, wtk=  0.00694, kpt=  0.3333  0.2500  0.0000 (reduced coord)
  -3.73274   -2.27802   -2.27800   -2.27767   -0.52348   -0.50496   -0.13969   -0.12417
  -0.09149   -0.08131   -0.05676   -0.04051   -0.00072    0.01030    0.01252    0.04882
   0.05356    0.22985
 kpt#  30, nband= 18, wtk=  0.00694, kpt=  0.4167  0.2500  0.0000 (reduced coord)
  -3.73274   -2.27802   -2.27800   -2.27767   -0.51717   -0.50334   -0.14528   -0.12769
  -0.09361   -0.08676   -0.07088   -0.04955    0.00222    0.00915    0.01224    0.04354
   0.05399    0.23363
 kpt#  31, nband= 18, wtk=  0.00694, kpt=  0.5000  0.2500  0.0000 (reduced coord)
  -3.73274   -2.27802   -2.27801   -2.27767   -0.51093   -0.50241   -0.14992   -0.12920
  -0.10607   -0.08396   -0.07873   -0.05983    0.00409    0.00692    0.01268    0.04137
   0.05272    0.23676
 kpt#  32, nband= 18, wtk=  0.00694, kpt= -0.4167  0.2500  0.0000 (reduced coord)
  -3.73274   -2.27802   -2.27801   -2.27767   -0.50624   -0.50282   -0.15169   -0.12904
  -0.11498   -0.08828   -0.07461   -0.06911    0.00282    0.00893    0.01182    0.04339
   0.04929    0.23700
 kpt#  33, nband= 18, wtk=  0.00694, kpt= -0.3333  0.2500  0.0000 (reduced coord)
  -3.73274   -2.27802   -2.27801   -2.27767   -0.50657   -0.50249   -0.15118   -0.12701
  -0.11642   -0.08774   -0.07778   -0.06890    0.00290    0.00879    0.01218    0.04094
   0.05201    0.23799
 kpt#  34, nband= 18, wtk=  0.00347, kpt= -0.2500  0.2500  0.0000 (reduced coord)
  -3.73274   -2.27802   -2.27801   -2.27767   -0.51135   -0.50197   -0.14843   -0.12563
  -0.10857   -0.08629   -0.08074   -0.06111    0.00414    0.00690    0.01348    0.03840
   0.05584    0.24106
 kpt#  35, nband= 18, wtk=  0.00347, kpt=  0.3333  0.3333  0.0000 (reduced coord)
  -3.73274   -2.27802   -2.27800   -2.27767   -0.52023   -0.50426   -0.14759   -0.13018
  -0.08923   -0.07845   -0.05494   -0.04685   -0.00382    0.00844    0.01205    0.05246
   0.05769    0.20929
 kpt#  36, nband= 18, wtk=  0.00694, kpt=  0.4167  0.3333  0.0000 (reduced coord)
  -3.73274   -2.27803   -2.27800   -2.27767   -0.51563   -0.50332   -0.15542   -0.13263
  -0.08482   -0.08125   -0.06555   -0.05310   -0.00151    0.00740    0.01110    0.05219
   0.05673    0.20647
 kpt#  37, nband= 18, wtk=  0.00694, kpt=  0.5000  0.3333  0.0000 (reduced coord)
  -3.73274   -2.27803   -2.27800   -2.27767   -0.51070   -0.50258   -0.15788   -0.13233
  -0.09540   -0.08181   -0.07512   -0.05979    0.00225    0.00669    0.01108    0.04634
   0.05547    0.21552
 kpt#  38, nband= 18, wtk=  0.00694, kpt= -0.4167  0.3333  0.0000 (reduced coord)
  -3.73274   -2.27802   -2.27801   -2.27767   -0.50650   -0.50253   -0.15376   -0.12922
  -0.11532   -0.08815   -0.07243   -0.06692    0.00264    0.00878    0.01155    0.04423
   0.05073    0.22713
 kpt#  39, nband= 18, wtk=  0.00347, kpt= -0.3333  0.3333  0.0000 (reduced coord)
  -3.73274   -2.27802   -2.27802   -2.27767   -0.50374   -0.50374   -0.14717   -0.12804
  -0.12546   -0.09176   -0.07251   -0.07092    0.00237    0.01095    0.01121    0.04438
   0.04730    0.23560
 kpt#  40, nband= 18, wtk=  0.00347, kpt=  0.4167  0.4167  0.0000 (reduced coord)
  -3.73274   -2.27803   -2.27800   -2.27767   -0.51300   -0.50327   -0.16446   -0.13611
  -0.07905   -0.07747   -0.06163   -0.05797   -0.00524    0.00627    0.01006    0.05761
   0.05901    0.19034
 kpt#  41, nband= 18, wtk=  0.00694, kpt=  0.5000  0.4167  0.0000 (reduced coord)
  -3.73274   -2.27803   -2.27800   -2.27767   -0.51006   -0.50313   -0.16739   -0.13660
  -0.07982   -0.07668   -0.06974   -0.06193   -0.00256    0.00596    0.00945    0.05504
   0.05840    0.19267
 kpt#  42, nband= 18, wtk=  0.00347, kpt= -0.4167  0.4167  0.0000 (reduced coord)
  -3.73274   -2.27803   -2.27801   -2.27767   -0.50772   -0.50282   -0.16311   -0.13352
  -0.09659   -0.08358   -0.06903   -0.06613    0.00117    0.00732    0.00996    0.04832
   0.05525    0.20821
 kpt#  43, nband= 18, wtk=  0.00174, kpt=  0.5000  0.5000  0.0000 (reduced coord)
  -3.73274   -2.27803   -2.27800   -2.27767   -0.50968   -0.50347   -0.17103   -0.13844
  -0.07688   -0.07157   -0.06421   -0.06395   -0.00598    0.00540    0.00895    0.05957
   0.05961    0.18342
 kpt#  44, nband= 18, wtk=  0.00116, kpt=  0.0833  0.0833  0.0833 (reduced coord)
  -3.73274   -2.27799   -2.27799   -2.27768   -0.54257   -0.51172   -0.15411   -0.08025
  -0.08025   -0.02220   -0.01285   -0.01285   -0.00389   -0.00389    0.00627    0.06273
   0.06273    0.17677
 kpt#  45, nband= 18, wtk=  0.00347, kpt=  0.1667  0.0833  0.0833 (reduced coord)
  -3.73274   -2.27799   -2.27799   -2.27768   -0.54077   -0.51109   -0.15119   -0.08547
  -0.08000   -0.03186   -0.02195   -0.02193   -0.00129    0.00292    0.01049    0.05559
   0.06128    0.19143
 kpt#  46, nband= 18, wtk=  0.00347, kpt=  0.2500  0.0833  0.0833 (reduced coord)
  -3.73274   -2.27800   -2.27799   -2.27767   -0.53581   -0.50915   -0.14459   -0.09787
  -0.07947   -0.06304   -0.03444   -0.02312   -0.00160    0.00899    0.01451    0.04345
   0.05819    0.22130
 kpt#  47, nband= 18, wtk=  0.00347, kpt=  0.3333  0.0833  0.0833 (reduced coord)
  -3.73274   -2.27801   -2.27799   -2.27767   -0.52848   -0.50657   -0.13880   -0.11246
  -0.09009   -0.07884   -0.04587   -0.03261   -0.00266    0.01050    0.01568    0.03939
   0.05622    0.23640
 kpt#  48, nband= 18, wtk=  0.00347, kpt=  0.4167  0.0833  0.0833 (reduced coord)
  -3.73274   -2.27802   -2.27800   -2.27767   -0.52014   -0.50439   -0.14703   -0.12336
  -0.09743   -0.07834   -0.05480   -0.04725   -0.00377    0.00870    0.01398    0.04310
   0.05614    0.22337
 kpt#  49, nband= 18, wtk=  0.00347, kpt=  0.5000  0.0833  0.0833 (reduced coord)
  -3.73274   -2.27803   -2.27800   -2.27767   -0.51261   -0.50376   -0.16148   -0.13081
  -0.08856   -0.07815   -0.06111   -0.06032   -0.00460    0.00637    0.01069    0.04847
   0.05677    0.21155
 kpt#  50, nband= 18, wtk=  0.00347, kpt= -0.4167  0.0833  0.0833 (reduced coord)
  -3.73274   -2.27803   -2.27800   -2.27767   -0.50898   -0.50428   -0.16717   -0.13368
  -0.08134   -0.07826   -0.06937   -0.06200   -0.00488    0.00538    0.00902    0.05173
   0.05709    0.20677
 kpt#  51, nband= 18, wtk=  0.00347, kpt= -0.3333  0.0833  0.0833 (reduced coord)
  -3.73274   -2.27803   -2.27800   -2.27767   -0.51311   -0.50320   -0.16093   -0.13122
  -0.09045   -0.07849   -0.06081   -0.05988   -0.00441    0.00634    0.01052    0.05160
   0.05678    0.20990
 kpt#  52, nband= 18, wtk=  0.00347, kpt= -0.2500  0.0833  0.0833 (reduced coord)
  -3.73274   -2.27802   -2.27800   -2.27767   -0.52065   -0.50378   -0.14598   -0.12527
  -0.09873   -0.07881   -0.05416   -0.04687   -0.00347    0.00866    0.01294    0.04861
   0.05610    0.22125
 kpt#  53, nband= 18, wtk=  0.00347, kpt= -0.1667  0.0833  0.0833 (reduced coord)
  -3.73274   -2.27801   -2.27799   -2.27767   -0.52892   -0.50601   -0.13996   -0.11321
  -0.09028   -0.07926   -0.04522   -0.03123   -0.00233    0.01050    0.01387    0.04502
   0.05605    0.23613
 kpt#  54, nband= 18, wtk=  0.00347, kpt= -0.0833  0.0833  0.0833 (reduced coord)
  -3.73274   -2.27800   -2.27799   -2.27767   -0.53613   -0.50871   -0.14659   -0.09733
  -0.07976   -0.06337   -0.03390   -0.02006   -0.00134    0.00903    0.01289    0.04644
   0.05791    0.21502
 kpt#  55, nband= 18, wtk=  0.00347, kpt=  0.1667  0.1667  0.0833 (reduced coord)
  -3.73274   -2.27799   -2.27799   -2.27768   -0.54065   -0.51125   -0.15032   -0.08539
  -0.08011   -0.03305   -0.02316   -0.02162   -0.00117    0.00280    0.01057    0.05628
   0.06119    0.19343
 kpt#  56, nband= 18, wtk=  0.00694, kpt=  0.2500  0.1667  0.0833 (reduced coord)
  -3.73274   -2.27800   -2.27799   -2.27768   -0.53724   -0.50999   -0.14544   -0.09402
  -0.08008   -0.05377   -0.03329   -0.02389   -0.00012    0.00748    0.01377    0.04873
   0.05726    0.21550
 kpt#  57, nband= 18, wtk=  0.00694, kpt=  0.3333  0.1667  0.0833 (reduced coord)
  -3.73274   -2.27801   -2.27799   -2.27767   -0.53109   -0.50771   -0.13903   -0.10671
  -0.08114   -0.07943   -0.04634   -0.02882   -0.00043    0.01066    0.01560    0.04174
   0.05348    0.24001
 kpt#  58, nband= 18, wtk=  0.00694, kpt=  0.4167  0.1667  0.0833 (reduced coord)
  -3.73274   -2.27802   -2.27800   -2.27767   -0.52325   -0.50525   -0.14023   -0.11894
  -0.09581   -0.08078   -0.05710   -0.04059   -0.00107    0.01020    0.01505    0.04068
   0.05326    0.23650
 kpt#  59, nband= 18, wtk=  0.00694, kpt=  0.5000  0.1667  0.0833 (reduced coord)
  -3.73274   -2.27803   -2.27800   -2.27767   -0.51530   -0.50373   -0.15392   -0.12773
  -0.09230   -0.08032   -0.06575   -0.05420   -0.00147    0.00756    0.01247    0.04516
   0.05388    0.22241
 kpt#  60, nband= 18, wtk=  0.00694, kpt= -0.4167  0.1667  0.0833 (reduced coord)
  -3.73274   -2.27803   -2.27800   -2.27767   -0.50939   -0.50390   -0.16425   -0.13254
  -0.08457   -0.07859   -0.07086   -0.06559   -0.00181    0.00607    0.00972    0.05066
   0.05349    0.21341
 kpt#  61, nband= 18, wtk=  0.00694, kpt= -0.3333  0.1667  0.0833 (reduced coord)
  -3.73274   -2.27803   -2.27800   -2.27767   -0.50992   -0.50334   -0.16389   -0.13256
  -0.08533   -0.08004   -0.07067   -0.06504   -0.00166    0.00602    0.00975    0.05073
   0.05544    0.21253
 kpt#  62, nband= 18, wtk=  0.00694, kpt= -0.2500  0.1667  0.0833 (reduced coord)
  -3.73274   -2.27803   -2.27800   -2.27767   -0.51602   -0.50291   -0.15277   -0.12848
  -0.09486   -0.08148   -0.06490   -0.05420   -0.00112    0.00753    0.01191    0.04806
   0.05643    0.22021
 kpt#  63, nband= 18, wtk=  0.00694, kpt= -0.1667  0.1667  0.0833 (reduced coord)
  -3.73274   -2.27802   -2.27800   -2.27767   -0.52392   -0.50444   -0.13968   -0.12073
  -0.09736   -0.08145   -0.05628   -0.03983   -0.00067    0.01047    0.01324    0.04627
   0.05431    0.23556
 kpt#  64, nband= 18, wtk=  0.00694, kpt= -0.0833  0.1667  0.0833 (reduced coord)
  -3.73274   -2.27801   -2.27799   -2.27767   -0.53163   -0.50701   -0.14154   -0.10599
  -0.08218   -0.07954   -0.04571   -0.02600   -0.00014    0.01124    0.01343    0.04696
   0.05236    0.23512
 kpt#  65, nband= 18, wtk=  0.00347, kpt=  0.2500  0.2500  0.0833 (reduced coord)
  -3.73274   -2.27800   -2.27799   -2.27768   -0.53554   -0.50951   -0.14282   -0.09853
  -0.07969   -0.06336   -0.03407   -0.02607   -0.00144    0.00880    0.01393    0.04673
   0.05843    0.22358
 kpt#  66, nband= 18, wtk=  0.00694, kpt=  0.3333  0.2500  0.0833 (reduced coord)
  -3.73274   -2.27801   -2.27799   -2.27767   -0.53096   -0.50788   -0.13827   -0.10827
  -0.08101   -0.07835   -0.04618   -0.03007   -0.00017    0.01045    0.01441    0.04611
   0.05289    0.24133
 kpt#  67, nband= 18, wtk=  0.00694, kpt=  0.4167  0.2500  0.0833 (reduced coord)
  -3.73274   -2.27801   -2.27800   -2.27767   -0.52430   -0.50565   -0.13712   -0.11830
  -0.09127   -0.08392   -0.06064   -0.03799    0.00110    0.01155    0.01375    0.04428
   0.04906    0.24772
 kpt#  68, nband= 18, wtk=  0.00694, kpt=  0.5000  0.2500  0.0833 (reduced coord)
  -3.73274   -2.27802   -2.27800   -2.27767   -0.51684   -0.50373   -0.14540   -0.12602
  -0.09528   -0.08525   -0.07148   -0.04960    0.00205    0.00906    0.01313    0.04211
   0.05103    0.23997
 kpt#  69, nband= 18, wtk=  0.00694, kpt= -0.4167  0.2500  0.0833 (reduced coord)
  -3.73274   -2.27803   -2.27800   -2.27767   -0.51026   -0.50308   -0.15606   -0.13033
  -0.09674   -0.08038   -0.07885   -0.06152    0.00241    0.00679    0.01167    0.04550
   0.05063    0.22988
 kpt#  70, nband= 18, wtk=  0.00694, kpt= -0.3333  0.2500  0.0833 (reduced coord)
  -3.73274   -2.27803   -2.27801   -2.27767   -0.50731   -0.50330   -0.16027   -0.13102
  -0.09732   -0.08380   -0.07254   -0.07094    0.00174    0.00755    0.01028    0.04614
   0.05245    0.22533
 kpt#  71, nband= 18, wtk=  0.00694, kpt= -0.2500  0.2500  0.0833 (reduced coord)
  -3.73274   -2.27803   -2.27800   -2.27767   -0.51098   -0.50231   -0.15522   -0.12906
  -0.09760   -0.08464   -0.07801   -0.06205    0.00259    0.00672    0.01192    0.04279
   0.05623    0.22887
 kpt#  72, nband= 18, wtk=  0.00694, kpt= -0.1667  0.2500  0.0833 (reduced coord)
  -3.73274   -2.27802   -2.27800   -2.27767   -0.51760   -0.50286   -0.14397   -0.12439
  -0.09901   -0.08840   -0.07043   -0.05023    0.00219    0.00902    0.01332    0.04091
   0.05618    0.23950
 kpt#  73, nband= 18, wtk=  0.00694, kpt= -0.0833  0.2500  0.0833 (reduced coord)
  -3.73274   -2.27801   -2.27800   -2.27767   -0.52498   -0.50482   -0.13785   -0.11529
  -0.09663   -0.08444   -0.05988   -0.03682    0.00111    0.01221    0.01345    0.04316
   0.05195    0.24943
 kpt#  74, nband= 18, wtk=  0.00347, kpt=  0.3333  0.3333  0.0833 (reduced coord)
  -3.73274   -2.27801   -2.27799   -2.27767   -0.52811   -0.50702   -0.13717   -0.11742
  -0.08474   -0.07902   -0.04578   -0.03508   -0.00261    0.01015    0.01365    0.04584
   0.05735    0.23324
 kpt#  75, nband= 18, wtk=  0.00694, kpt=  0.4167  0.3333  0.0833 (reduced coord)
  -3.73274   -2.27802   -2.27800   -2.27767   -0.52308   -0.50544   -0.13971   -0.12532
  -0.08811   -0.08108   -0.05728   -0.04132   -0.00084    0.01008    0.01267    0.04833
   0.05316    0.22746
 kpt#  76, nband= 18, wtk=  0.00694, kpt=  0.5000  0.3333  0.0833 (reduced coord)
  -3.73274   -2.27802   -2.27800   -2.27767   -0.51683   -0.50372   -0.14601   -0.12892
  -0.09174   -0.08466   -0.07151   -0.04922    0.00221    0.00922    0.01180    0.04500
   0.05186    0.23127
 kpt#  77, nband= 18, wtk=  0.00694, kpt= -0.4167  0.3333  0.0833 (reduced coord)
  -3.73274   -2.27802   -2.27801   -2.27767   -0.51070   -0.50266   -0.15063   -0.13070
  -0.10485   -0.08326   -0.07778   -0.05892    0.00407    0.00694    0.01232    0.04292
   0.05117    0.23471
 kpt#  78, nband= 18, wtk=  0.00694, kpt= -0.3333  0.3333  0.0833 (reduced coord)
  -3.73274   -2.27802   -2.27801   -2.27767   -0.50619   -0.50287   -0.15243   -0.12994
  -0.11424   -0.08844   -0.07357   -0.06810    0.00274    0.00893    0.01164    0.04425
   0.04902    0.23442
 kpt#  79, nband= 18, wtk=  0.00694, kpt= -0.2500  0.3333  0.0833 (reduced coord)
  -3.73274   -2.27802   -2.27801   -2.27767   -0.50663   -0.50242   -0.15176   -0.12715
  -0.11637   -0.08788   -0.07688   -0.06849    0.00285    0.00875    0.01210    0.04112
   0.05246    0.23565
 kpt#  80, nband= 18, wtk=  0.00694, kpt= -0.1667  0.3333  0.0833 (reduced coord)
  -3.73274   -2.27802   -2.27801   -2.27767   -0.51130   -0.50202   -0.14863   -0.12616
  -0.10822   -0.08591   -0.08046   -0.06099    0.00413    0.00690    0.01337    0.03879
   0.05542    0.24049
 kpt#  81, nband= 18, wtk=  0.00694, kpt= -0.0833  0.3333  0.0833 (reduced coord)
  -3.73274   -2.27802   -2.27800   -2.27767   -0.51745   -0.50304   -0.14400   -0.12337
  -0.10010   -0.08761   -0.07071   -0.05027    0.00212    0.00900    0.01374    0.04034
   0.05450    0.24281
 kpt#  82, nband= 18, wtk=  0.00347, kpt=  0.4167  0.4167  0.0833 (reduced coord)
  -3.73274   -2.27802   -2.27800   -2.27767   -0.51985   -0.50469   -0.14843   -0.13054
  -0.08589   -0.07812   -0.05547   -0.04736   -0.00407    0.00840    0.01218    0.05089
   0.05814    0.20694
 kpt#  83, nband= 18, wtk=  0.00694, kpt=  0.5000  0.4167  0.0833 (reduced coord)
  -3.73274   -2.27803   -2.27800   -2.27767   -0.51532   -0.50367   -0.15620   -0.13300
  -0.08232   -0.08065   -0.06609   -0.05296   -0.00170    0.00738    0.01110    0.05253
   0.05538    0.20431
 kpt#  84, nband= 18, wtk=  0.00694, kpt= -0.4167  0.4167  0.0833 (reduced coord)
  -3.73274   -2.27803   -2.27800   -2.27767   -0.51048   -0.50281   -0.15834   -0.13286
  -0.09498   -0.08103   -0.07479   -0.05916    0.00215    0.00670    0.01095    0.04739
   0.05392    0.21406
 kpt#  85, nband= 18, wtk=  0.00694, kpt= -0.3333  0.4167  0.0833 (reduced coord)
  -3.73274   -2.27802   -2.27801   -2.27767   -0.50639   -0.50265   -0.15393   -0.13000
  -0.11461   -0.08827   -0.07217   -0.06634    0.00260    0.00882    0.01145    0.04501
   0.04992    0.22684
 kpt#  86, nband= 18, wtk=  0.00694, kpt= -0.2500  0.4167  0.0833 (reduced coord)
  -3.73274   -2.27802   -2.27802   -2.27767   -0.50374   -0.50374   -0.14717   -0.12813
  -0.12537   -0.09180   -0.07227   -0.07112    0.00237    0.01096    0.01120    0.04442
   0.04726    0.23574
 kpt#  87, nband= 18, wtk=  0.00694, kpt= -0.1667  0.4167  0.0833 (reduced coord)
  -3.73274   -2.27802   -2.27801   -2.27767   -0.50646   -0.50260   -0.15095   -0.12730
  -0.11625   -0.08785   -0.07734   -0.06933    0.00290    0.00885    0.01214    0.04140
   0.05110    0.23908
 kpt#  88, nband= 18, wtk=  0.00694, kpt= -0.0833  0.4167  0.0833 (reduced coord)
  -3.73274   -2.27803   -2.27800   -2.27767   -0.51069   -0.50263   -0.15467   -0.12845
  -0.09853   -0.08293   -0.07935   -0.06261    0.00259    0.00676    0.01210    0.04294
   0.05334    0.23468
 kpt#  89, nband= 18, wtk=  0.00347, kpt=  0.5000  0.5000  0.0833 (reduced coord)
  -3.73274   -2.27803   -2.27800   -2.27767   -0.51274   -0.50355   -0.16496   -0.13618
  -0.07725   -0.07718   -0.06202   -0.05792   -0.00544    0.00628    0.01010    0.05633
   0.05918    0.18921
 kpt#  90, nband= 18, wtk=  0.00694, kpt= -0.4167  0.5000  0.0833 (reduced coord)
  -3.73274   -2.27803   -2.27800   -2.27767   -0.50989   -0.50331   -0.16751   -0.13655
  -0.07985   -0.07602   -0.06985   -0.06191   -0.00264    0.00597    0.00944    0.05536
   0.05726    0.19268
 kpt#  91, nband= 18, wtk=  0.00694, kpt= -0.3333  0.5000  0.0833 (reduced coord)
  -3.73274   -2.27803   -2.27801   -2.27767   -0.50769   -0.50286   -0.16287   -0.13331
  -0.09657   -0.08367   -0.06923   -0.06666    0.00123    0.00734    0.00999    0.04800
   0.05513    0.20967
 kpt#  92, nband= 18, wtk=  0.00694, kpt= -0.2500  0.5000  0.0833 (reduced coord)
  -3.73274   -2.27802   -2.27801   -2.27767   -0.50659   -0.50244   -0.15325   -0.12835
  -0.11590   -0.08813   -0.07341   -0.06763    0.00270    0.00875    0.01172    0.04306
   0.05165    0.22929
 kpt#  93, nband= 18, wtk=  0.00694, kpt= -0.1667  0.5000  0.0833 (reduced coord)
  -3.73274   -2.27802   -2.27801   -2.27767   -0.50635   -0.50272   -0.15114   -0.12805
  -0.11575   -0.08808   -0.07600   -0.06951    0.00287    0.00890    0.01200    0.04233
   0.05007    0.23870
 kpt#  94, nband= 18, wtk=  0.00347, kpt= -0.0833  0.5000  0.0833 (reduced coord)
  -3.73274   -2.27803   -2.27801   -2.27767   -0.50714   -0.50348   -0.15924   -0.13007
  -0.09805   -0.08354   -0.07366   -0.07257    0.00189    0.00763    0.01038    0.04623
   0.05068    0.23152
 kpt#  95, nband= 18, wtk=  0.00347, kpt= -0.4167 -0.4167  0.0833 (reduced coord)
  -3.73274   -2.27803   -2.27800   -2.27767   -0.50964   -0.50352   -0.17077   -0.13812
  -0.07699   -0.07229   -0.06429   -0.06404   -0.00588    0.00540    0.00896    0.05899
   0.05939    0.18488
 kpt#  96, nband= 18, wtk=  0.00694, kpt= -0.3333 -0.4167  0.0833 (reduced coord)
  -3.73274   -2.27803   -2.27800   -2.27767   -0.51016   -0.50303   -0.16679   -0.13605
  -0.07998   -0.07820   -0.06984   -0.06250   -0.00236    0.00596    0.00950    0.05417
   0.05869    0.19546
 kpt#  97, nband= 18, wtk=  0.00694, kpt= -0.2500 -0.4167  0.0833 (reduced coord)
  -3.73274   -2.27803   -2.27800   -2.27767   -0.51088   -0.50239   -0.15706   -0.13137
  -0.09594   -0.08300   -0.07592   -0.06062    0.00238    0.00668    0.01133    0.04500
   0.05652    0.21911
 kpt#  98, nband= 18, wtk=  0.00694, kpt= -0.1667 -0.4167  0.0833 (reduced coord)
  -3.73274   -2.27802   -2.27801   -2.27767   -0.51115   -0.50219   -0.14918   -0.12753
  -0.10729   -0.08497   -0.07970   -0.06056    0.00411    0.00691    0.01307    0.03987
   0.05428    0.23892
 kpt#  99, nband= 18, wtk=  0.00347, kpt= -0.3333 -0.3333  0.0833 (reduced coord)
  -3.73274   -2.27803   -2.27800   -2.27767   -0.51320   -0.50306   -0.16357   -0.13535
  -0.08212   -0.07784   -0.06108   -0.05838   -0.00497    0.00627    0.01011    0.05754
   0.05855    0.19386
 kpt# 100, nband= 18, wtk=  0.00694, kpt= -0.2500 -0.3333  0.0833 (reduced coord)
  -3.73274   -2.27803   -2.27800   -2.27767   -0.51588   -0.50305   -0.15442   -0.13160
  -0.08847   -0.08150   -0.06511   -0.05341   -0.00131    0.00744    0.01127    0.05101
   0.05753    0.21043
 kpt# 101, nband= 18, wtk=  0.00694, kpt= -0.1667 -0.3333  0.0833 (reduced coord)
  -3.73274   -2.27802   -2.27800   -2.27767   -0.51744   -0.50303   -0.14453   -0.12605
  -0.09634   -0.08800   -0.07052   -0.04993    0.00221    0.00907    0.01280    0.04207
   0.05555    0.23659
 kpt# 102, nband= 18, wtk=  0.00347, kpt= -0.2500 -0.2500  0.0833 (reduced coord)
  -3.73274   -2.27802   -2.27800   -2.27767   -0.52052   -0.50392   -0.14677   -0.12900
  -0.09305   -0.07871   -0.05448   -0.04661   -0.00362    0.00851    0.01216    0.05254
   0.05710    0.21302
 kpt# 103, nband= 18, wtk=  0.00694, kpt= -0.1667 -0.2500  0.0833 (reduced coord)
  -3.73274   -2.27802   -2.27800   -2.27767   -0.52378   -0.50460   -0.13968   -0.12251
  -0.09479   -0.08145   -0.05640   -0.04001   -0.00066    0.01044    0.01273    0.04784
   0.05422    0.23279
 kpt# 104, nband= 18, wtk=  0.00347, kpt= -0.1667 -0.1667  0.0833 (reduced coord)
  -3.73274   -2.27801   -2.27799   -2.27767   -0.52883   -0.50612   -0.13964   -0.11434
  -0.08907   -0.07930   -0.04520   -0.03172   -0.00234    0.01041    0.01341    0.04671
   0.05635    0.23565
 kpt# 105, nband= 18, wtk=  0.00116, kpt=  0.1667  0.1667  0.1667 (reduced coord)
  -3.73274   -2.27799   -2.27799   -2.27768   -0.54220   -0.51224   -0.15135   -0.08016
  -0.08016   -0.02885   -0.01312   -0.01312   -0.00390   -0.00390    0.00687    0.06291
   0.06291    0.18471
 kpt# 106, nband= 18, wtk=  0.00347, kpt=  0.2500  0.1667  0.1667 (reduced coord)
  -3.73274   -2.27799   -2.27799   -2.27768   -0.54034   -0.51168   -0.14807   -0.08581
  -0.07986   -0.03291   -0.02760   -0.02226   -0.00137    0.00285    0.01146    0.05539
   0.06156    0.20008
 kpt# 107, nband= 18, wtk=  0.00347, kpt=  0.3333  0.1667  0.1667 (reduced coord)
  -3.73274   -2.27800   -2.27799   -2.27768   -0.53536   -0.50976   -0.14169   -0.09875
  -0.07927   -0.06285   -0.03482   -0.02746   -0.00175    0.00888    0.01572    0.04210
   0.05856    0.22800
 kpt# 108, nband= 18, wtk=  0.00347, kpt=  0.4167  0.1667  0.1667 (reduced coord)
  -3.73274   -2.27801   -2.27799   -2.27767   -0.52804   -0.50712   -0.13764   -0.11310
  -0.08852   -0.07857   -0.04633   -0.03434   -0.00290    0.01040    0.01657    0.03706
   0.05665    0.23562
 kpt# 109, nband= 18, wtk=  0.00347, kpt=  0.5000  0.1667  0.1667 (reduced coord)
  -3.73274   -2.27802   -2.27800   -2.27767   -0.51976   -0.50483   -0.14795   -0.12406
  -0.09401   -0.07801   -0.05532   -0.04738   -0.00403    0.00866    0.01424    0.04152
   0.05658    0.22045
 kpt# 110, nband= 18, wtk=  0.00347, kpt= -0.4167  0.1667  0.1667 (reduced coord)
  -3.73274   -2.27803   -2.27800   -2.27767   -0.51238   -0.50400   -0.16246   -0.13177
  -0.08548   -0.07780   -0.06085   -0.06048   -0.00484    0.00638    0.01065    0.04844
   0.05724    0.20702
 kpt# 111, nband= 18, wtk=  0.00347, kpt= -0.3333  0.1667  0.1667 (reduced coord)
  -3.73274   -2.27803   -2.27800   -2.27767   -0.50913   -0.50410   -0.16798   -0.13468
  -0.07946   -0.07802   -0.06819   -0.06241   -0.00507    0.00539    0.00901    0.05314
   0.05758    0.20146
 kpt# 112, nband= 18, wtk=  0.00347, kpt= -0.2500  0.1667  0.1667 (reduced coord)
  -3.73274   -2.27803   -2.27800   -2.27767   -0.51326   -0.50303   -0.16152   -0.13252
  -0.08869   -0.07842   -0.06008   -0.06001   -0.00451    0.00631    0.01036    0.05399
   0.05725    0.20485
 kpt# 113, nband= 18, wtk=  0.00347, kpt= -0.1667  0.1667  0.1667 (reduced coord)
  -3.73274   -2.27802   -2.27800   -2.27767   -0.52067   -0.50375   -0.14617   -0.12722
  -0.09647   -0.07884   -0.05420   -0.04665   -0.00349    0.00859    0.01246    0.05112
   0.05651    0.21734
 kpt# 114, nband= 18, wtk=  0.00347, kpt=  0.2500  0.2500  0.1667 (reduced coord)
  -3.73274   -2.27799   -2.27799   -2.27768   -0.54017   -0.51191   -0.14676   -0.08577
  -0.08001   -0.03532   -0.02833   -0.02183   -0.00122    0.00269    0.01147    0.05630
   0.06144    0.20308
 kpt# 115, nband= 18, wtk=  0.00694, kpt=  0.3333  0.2500  0.1667 (reduced coord)
  -3.73274   -2.27800   -2.27799   -2.27768   -0.53675   -0.51066   -0.14197   -0.09504
  -0.07992   -0.05382   -0.03357   -0.02934   -0.00015    0.00726    0.01484    0.04798
   0.05777    0.22434
 kpt# 116, nband= 18, wtk=  0.00694, kpt=  0.4167  0.2500  0.1667 (reduced coord)
  -3.73274   -2.27801   -2.27799   -2.27767   -0.53061   -0.50833   -0.13669   -0.10808
  -0.08036   -0.07865   -0.04672   -0.03174   -0.00051    0.01033    0.01647    0.04021
   0.05396    0.24273
 kpt# 117, nband= 18, wtk=  0.00694, kpt=  0.5000  0.2500  0.1667 (reduced coord)
  -3.73274   -2.27802   -2.27800   -2.27767   -0.52283   -0.50575   -0.14046   -0.12021
  -0.09232   -0.08051   -0.05754   -0.04128   -0.00122    0.01004    0.01521    0.03971
   0.05338    0.23374
 kpt# 118, nband= 18, wtk=  0.00694, kpt= -0.4167  0.2500  0.1667 (reduced coord)
  -3.73274   -2.27803   -2.27800   -2.27767   -0.51502   -0.50404   -0.15497   -0.12898
  -0.08877   -0.07983   -0.06614   -0.05379   -0.00167    0.00751    0.01229    0.04543
   0.05395    0.21747
 kpt# 119, nband= 18, wtk=  0.00694, kpt= -0.3333  0.2500  0.1667 (reduced coord)
  -3.73274   -2.27803   -2.27800   -2.27767   -0.50938   -0.50389   -0.16526   -0.13366
  -0.08275   -0.07769   -0.07066   -0.06483   -0.00206    0.00606    0.00964    0.05179
   0.05400    0.20735
 kpt# 120, nband= 18, wtk=  0.00694, kpt= -0.2500  0.2500  0.1667 (reduced coord)
  -3.73274   -2.27803   -2.27800   -2.27767   -0.51008   -0.50315   -0.16478   -0.13373
  -0.08323   -0.08013   -0.07028   -0.06430   -0.00184    0.00599    0.00967    0.05174
   0.05688    0.20660
 kpt# 121, nband= 18, wtk=  0.00694, kpt= -0.1667  0.2500  0.1667 (reduced coord)
  -3.73274   -2.27803   -2.27800   -2.27767   -0.51602   -0.50290   -0.15345   -0.13009
  -0.09211   -0.08158   -0.06488   -0.05382   -0.00118    0.00748    0.01156    0.04955
   0.05736    0.21535
 kpt# 122, nband= 18, wtk=  0.00347, kpt=  0.3333  0.3333  0.1667 (reduced coord)
  -3.73274   -2.27800   -2.27799   -2.27768   -0.53503   -0.51019   -0.13938   -0.09993
  -0.07953   -0.06275   -0.03439   -0.03108   -0.00156    0.00866    0.01490    0.04585
   0.05884    0.23247
 kpt# 123, nband= 18, wtk=  0.00694, kpt=  0.4167  0.3333  0.1667 (reduced coord)
  -3.73274   -2.27801   -2.27799   -2.27767   -0.53047   -0.50850   -0.13573   -0.10999
  -0.08052   -0.07688   -0.04664   -0.03318   -0.00025    0.01011    0.01522    0.04433
   0.05363    0.24563
 kpt# 124, nband= 18, wtk=  0.00694, kpt=  0.5000  0.3333  0.1667 (reduced coord)
  -3.73274   -2.27802   -2.27800   -2.27767   -0.52388   -0.50616   -0.13657   -0.11998
  -0.08807   -0.08352   -0.06123   -0.03897    0.00110    0.01113    0.01399    0.04427
   0.04813    0.24670
 kpt# 125, nband= 18, wtk=  0.00694, kpt= -0.4167  0.3333  0.1667 (reduced coord)
  -3.73274   -2.27802   -2.27800   -2.27767   -0.51653   -0.50407   -0.14614   -0.12756
  -0.09281   -0.08359   -0.07208   -0.04923    0.00206    0.00910    0.01261    0.04344
   0.04967    0.23654
 kpt# 126, nband= 18, wtk=  0.00694, kpt= -0.3333  0.3333  0.1667 (reduced coord)
  -3.73274   -2.27803   -2.27800   -2.27767   -0.51014   -0.50320   -0.15705   -0.13148
  -0.09563   -0.08040   -0.07729   -0.06045    0.00228    0.00678    0.01137    0.04695
   0.05024    0.22438
 kpt# 127, nband= 18, wtk=  0.00694, kpt= -0.2500  0.3333  0.1667 (reduced coord)
  -3.73274   -2.27803   -2.27801   -2.27767   -0.50745   -0.50313   -0.16125   -0.13191
  -0.09684   -0.08392   -0.07107   -0.06962    0.00156    0.00747    0.01018    0.04655
   0.05372    0.21942
 kpt# 128, nband= 18, wtk=  0.00694, kpt= -0.1667  0.3333  0.1667 (reduced coord)
  -3.73274   -2.27803   -2.27800   -2.27767   -0.51098   -0.50229   -0.15609   -0.13017
  -0.09667   -0.08415   -0.07697   -0.06141    0.00250    0.00669    0.01164    0.04371
   0.05680    0.22392
 kpt# 129, nband= 18, wtk=  0.00347, kpt=  0.4167  0.4167  0.1667 (reduced coord)
  -3.73274   -2.27801   -2.27799   -2.27767   -0.52766   -0.50759   -0.13556   -0.11870
  -0.08248   -0.07875   -0.04623   -0.03739   -0.00280    0.01006    0.01426    0.04372
   0.05777    0.23201
 kpt# 130, nband= 18, wtk=  0.00694, kpt=  0.5000  0.4167  0.1667 (reduced coord)
  -3.73274   -2.27802   -2.27800   -2.27767   -0.52268   -0.50591   -0.13983   -0.12565
  -0.08547   -0.08081   -0.05783   -0.04222   -0.00101    0.00987    0.01310    0.04621
   0.05345    0.22613
 kpt# 131, nband= 18, wtk=  0.00694, kpt= -0.4167  0.4167  0.1667 (reduced coord)
  -3.73274   -2.27802   -2.27800   -2.27767   -0.51653   -0.50406   -0.14656   -0.12953
  -0.09081   -0.08251   -0.07230   -0.04899    0.00218    0.00924    0.01160    0.04611
   0.04970    0.23016
 kpt# 132, nband= 18, wtk=  0.00694, kpt= -0.3333  0.4167  0.1667 (reduced coord)
  -3.73274   -2.27802   -2.27801   -2.27767   -0.51052   -0.50284   -0.15114   -0.13171
  -0.10394   -0.08296   -0.07709   -0.05813    0.00404    0.00695    0.01207    0.04412
   0.05000    0.23337
 kpt# 133, nband= 18, wtk=  0.00694, kpt= -0.2500  0.4167  0.1667 (reduced coord)
  -3.73274   -2.27802   -2.27801   -2.27767   -0.50620   -0.50285   -0.15316   -0.13046
  -0.11387   -0.08852   -0.07284   -0.06701    0.00266    0.00891    0.01150    0.04482
   0.04916    0.23137
 kpt# 134, nband= 18, wtk=  0.00694, kpt= -0.1667  0.4167  0.1667 (reduced coord)
  -3.73274   -2.27802   -2.27801   -2.27767   -0.50664   -0.50240   -0.15252   -0.12762
  -0.11622   -0.08807   -0.07512   -0.06812    0.00278    0.00874    0.01193    0.04190
   0.05232    0.23249
 kpt# 135, nband= 18, wtk=  0.00347, kpt=  0.5000  0.5000  0.1667 (reduced coord)
  -3.73274   -2.27802   -2.27800   -2.27767   -0.51950   -0.50510   -0.14908   -0.13006
  -0.08391   -0.07781   -0.05591   -0.04788   -0.00430    0.00840    0.01253    0.04826
   0.05831    0.20643
 kpt# 136, nband= 18, wtk=  0.00694, kpt= -0.4167  0.5000  0.1667 (reduced coord)
  -3.73274   -2.27803   -2.27800   -2.27767   -0.51503   -0.50399   -0.15658   -0.13267
  -0.08195   -0.07956   -0.06653   -0.05296   -0.00186    0.00738    0.01127    0.05103
   0.05480    0.20446
 kpt# 137, nband= 18, wtk=  0.00694, kpt= -0.3333  0.5000  0.1667 (reduced coord)
  -3.73274   -2.27803   -2.27800   -2.27767   -0.51027   -0.50304   -0.15834   -0.13288
  -0.09476   -0.08067   -0.07505   -0.05901    0.00212    0.00673    0.01096    0.04790
   0.05226    0.21525
 kpt# 138, nband= 18, wtk=  0.00694, kpt= -0.2500  0.5000  0.1667 (reduced coord)
  -3.73274   -2.27802   -2.27801   -2.27767   -0.50627   -0.50277   -0.15371   -0.13047
  -0.11402   -0.08844   -0.07236   -0.06634    0.00260    0.00887    0.01143    0.04514
   0.04944    0.22850
 kpt# 139, nband= 18, wtk=  0.00347, kpt= -0.1667  0.5000  0.1667 (reduced coord)
  -3.73274   -2.27802   -2.27802   -2.27767   -0.50374   -0.50374   -0.14717   -0.12821
  -0.12528   -0.09184   -0.07186   -0.07152    0.00237    0.01098    0.01119    0.04447
   0.04721    0.23589
 kpt# 140, nband= 18, wtk=  0.00347, kpt= -0.4167 -0.4167  0.1667 (reduced coord)
  -3.73274   -2.27803   -2.27800   -2.27767   -0.51248   -0.50384   -0.16496   -0.13560
  -0.07724   -0.07706   -0.06213   -0.05819   -0.00549    0.00631    0.01021    0.05409
   0.05900    0.19080
 kpt# 141, nband= 18, wtk=  0.00694, kpt= -0.3333 -0.4167  0.1667 (reduced coord)
  -3.73274   -2.27803   -2.27800   -2.27767   -0.50968   -0.50354   -0.16712   -0.13594
  -0.08026   -0.07608   -0.07017   -0.06253   -0.00255    0.00600    0.00948    0.05494
   0.05573    0.19556
 kpt# 142, nband= 18, wtk=  0.00694, kpt= -0.2500 -0.4167  0.1667 (reduced coord)
  -3.73274   -2.27803   -2.27801   -2.27767   -0.50759   -0.50297   -0.16220   -0.13274
  -0.09661   -0.08385   -0.06987   -0.06804    0.00137    0.00739    0.01007    0.04728
   0.05465    0.21373
 kpt# 143, nband= 18, wtk=  0.00347, kpt= -0.3333 -0.3333  0.1667 (reduced coord)
  -3.73274   -2.27803   -2.27800   -2.27767   -0.50951   -0.50367   -0.17005   -0.13724
  -0.07729   -0.07425   -0.06526   -0.06358   -0.00565    0.00540    0.00897    0.05733
   0.05891    0.18897
 kpt# 144, nband= 18, wtk=  0.00694, kpt= -0.2500 -0.3333  0.1667 (reduced coord)
  -3.73274   -2.27803   -2.27800   -2.27767   -0.51017   -0.50304   -0.16584   -0.13502
  -0.08071   -0.07997   -0.07001   -0.06338   -0.00209    0.00597    0.00958    0.05298
   0.05810    0.20045
 kpt# 145, nband= 18, wtk=  0.00347, kpt= -0.2500 -0.2500  0.1667 (reduced coord)
  -3.73274   -2.27803   -2.27800   -2.27767   -0.51329   -0.50298   -0.16250   -0.13405
  -0.08563   -0.07819   -0.06051   -0.05911   -0.00470    0.00628    0.01021    0.05618
   0.05790    0.19905
 kpt# 146, nband= 18, wtk=  0.00116, kpt=  0.2500  0.2500  0.2500 (reduced coord)
  -3.73274   -2.27799   -2.27799   -2.27768   -0.54167   -0.51298   -0.14724   -0.08004
  -0.08004   -0.03766   -0.01349   -0.01349   -0.00389   -0.00389    0.00736    0.06315
   0.06315    0.19603
 kpt# 147, nband= 18, wtk=  0.00347, kpt=  0.3333  0.2500  0.2500 (reduced coord)
  -3.73274   -2.27799   -2.27799   -2.27768   -0.53980   -0.51242   -0.14387   -0.08640
  -0.07972   -0.03757   -0.03084   -0.02257   -0.00144    0.00274    0.01222    0.05539
   0.06187    0.21121
 kpt# 148, nband= 18, wtk=  0.00347, kpt=  0.4167  0.2500  0.2500 (reduced coord)
  -3.73274   -2.27800   -2.27799   -2.27768   -0.53484   -0.51044   -0.13815   -0.10010
  -0.07910   -0.06240   -0.03515   -0.03247   -0.00185    0.00873    0.01662    0.04145
   0.05898    0.23513
 kpt# 149, nband= 18, wtk=  0.00347, kpt=  0.5000  0.2500  0.2500 (reduced coord)
  -3.73274   -2.27801   -2.27799   -2.27767   -0.52759   -0.50768   -0.13633   -0.11452
  -0.08608   -0.07836   -0.04672   -0.03648   -0.00308    0.01027    0.01697    0.03609
   0.05717    0.23431
 kpt# 150, nband= 18, wtk=  0.00347, kpt= -0.4167  0.2500  0.2500 (reduced coord)
  -3.73274   -2.27802   -2.27800   -2.27767   -0.51943   -0.50520   -0.14878   -0.12551
  -0.08989   -0.07772   -0.05581   -0.04761   -0.00428    0.00858    0.01411    0.04141
   0.05718    0.21590
 kpt# 151, nband= 18, wtk=  0.00347, kpt= -0.3333  0.2500  0.2500 (reduced coord)
  -3.73274   -2.27803   -2.27800   -2.27767   -0.51226   -0.50411   -0.16355   -0.13311
  -0.08200   -0.07744   -0.06144   -0.05959   -0.00513    0.00636    0.01053    0.04956
   0.05788    0.20080
 kpt# 152, nband= 18, wtk=  0.00347, kpt= -0.2500  0.2500  0.2500 (reduced coord)
  -3.73274   -2.27803   -2.27800   -2.27767   -0.50933   -0.50388   -0.16903   -0.13599
  -0.07767   -0.07688   -0.06668   -0.06299   -0.00535    0.00540    0.00899    0.05517
   0.05824    0.19493
 kpt# 153, nband= 18, wtk=  0.00347, kpt=  0.3333  0.3333  0.2500 (reduced coord)
  -3.73274   -2.27799   -2.27799   -2.27768   -0.53962   -0.51267   -0.14239   -0.08648
  -0.07987   -0.04037   -0.03108   -0.02214   -0.00130    0.00258    0.01218    0.05626
   0.06174    0.21479
 kpt# 154, nband= 18, wtk=  0.00694, kpt=  0.4167  0.3333  0.2500 (reduced coord)
  -3.73274   -2.27800   -2.27799   -2.27768   -0.53622   -0.51136   -0.13805   -0.09649
  -0.07976   -0.05346   -0.03503   -0.03384   -0.00019    0.00707    0.01567    0.04743
   0.05824    0.23417
 kpt# 155, nband= 18, wtk=  0.00694, kpt=  0.5000  0.3333  0.2500 (reduced coord)
  -3.73274   -2.27801   -2.27799   -2.27767   -0.53015   -0.50890   -0.13426   -0.10986
  -0.08003   -0.07703   -0.04708   -0.03480   -0.00053    0.01006    0.01698    0.03952
   0.05439    0.24500
 kpt# 156, nband= 18, wtk=  0.00694, kpt= -0.4167  0.3333  0.2500 (reduced coord)
  -3.73274   -2.27802   -2.27800   -2.27767   -0.52249   -0.50615   -0.14051   -0.12194
  -0.08859   -0.08034   -0.05795   -0.04210   -0.00130    0.00989    0.01496    0.03991
   0.05363    0.23047
 kpt# 157, nband= 18, wtk=  0.00694, kpt= -0.3333  0.3333  0.2500 (reduced coord)
  -3.73274   -2.27803   -2.27800   -2.27767   -0.51485   -0.50421   -0.15590   -0.13043
  -0.08537   -0.07942   -0.06649   -0.05337   -0.00184    0.00746    0.01196    0.04664
   0.05427    0.21178
 kpt# 158, nband= 18, wtk=  0.00694, kpt= -0.2500  0.3333  0.2500 (reduced coord)
  -3.73274   -2.27803   -2.27800   -2.27767   -0.50949   -0.50376   -0.16631   -0.13489
  -0.08121   -0.07674   -0.07049   -0.06365   -0.00233    0.00603    0.00955    0.05340
   0.05477    0.20083
 kpt# 159, nband= 18, wtk=  0.00347, kpt=  0.4167  0.4167  0.2500 (reduced coord)
  -3.73274   -2.27800   -2.27799   -2.27768   -0.53454   -0.51083   -0.13580   -0.10160
  -0.07933   -0.06173   -0.03596   -0.03478   -0.00168    0.00854    0.01580    0.04469
   0.05922    0.24157
 kpt# 160, nband= 18, wtk=  0.00694, kpt=  0.5000  0.4167  0.2500 (reduced coord)
  -3.73274   -2.27801   -2.27799   -2.27767   -0.53005   -0.50903   -0.13335   -0.11155
  -0.08020   -0.07537   -0.04711   -0.03600   -0.00034    0.00989    0.01602    0.04244
   0.05425    0.24770
 kpt# 161, nband= 18, wtk=  0.00694, kpt= -0.4167  0.4167  0.2500 (reduced coord)
  -3.73274   -2.27802   -2.27800   -2.27767   -0.52355   -0.50654   -0.13608   -0.12124
  -0.08572   -0.08305   -0.06178   -0.03986    0.00112    0.01082    0.01418    0.04370
   0.04806    0.24594
 kpt# 162, nband= 18, wtk=  0.00694, kpt= -0.3333  0.4167  0.2500 (reduced coord)
  -3.73274   -2.27802   -2.27800   -2.27767   -0.51634   -0.50427   -0.14664   -0.12878
  -0.09123   -0.08202   -0.07266   -0.04898    0.00209    0.00915    0.01210    0.04487
   0.04879    0.23309
 kpt# 163, nband= 18, wtk=  0.00694, kpt= -0.2500  0.4167  0.2500 (reduced coord)
  -3.73274   -2.27803   -2.27800   -2.27767   -0.51014   -0.50319   -0.15788   -0.13239
  -0.09493   -0.08053   -0.07592   -0.05949    0.00217    0.00676    0.01112    0.04781
   0.05085    0.21897
 kpt# 164, nband= 18, wtk=  0.00347, kpt=  0.5000  0.5000  0.2500 (reduced coord)
  -3.73274   -2.27801   -2.27799   -2.27767   -0.52729   -0.50804   -0.13445   -0.11908
  -0.08117   -0.07850   -0.04664   -0.03917   -0.00299    0.01002    0.01507    0.04112
   0.05799    0.23153
 kpt# 165, nband= 18, wtk=  0.00694, kpt= -0.4167  0.5000  0.2500 (reduced coord)
  -3.73274   -2.27802   -2.27800   -2.27767   -0.52240   -0.50625   -0.14008   -0.12505
  -0.08449   -0.08055   -0.05818   -0.04279   -0.00117    0.00977    0.01372    0.04359
   0.05376    0.22619
 kpt# 166, nband= 18, wtk=  0.00694, kpt= -0.3333  0.5000  0.2500 (reduced coord)
  -3.73274   -2.27802   -2.27800   -2.27767   -0.51634   -0.50427   -0.14678   -0.12947
  -0.09062   -0.08145   -0.07281   -0.04891    0.00214    0.00921    0.01172    0.04616
   0.04849    0.23076
 kpt# 167, nband= 18, wtk=  0.00347, kpt= -0.2500  0.5000  0.2500 (reduced coord)
  -3.73274   -2.27802   -2.27801   -2.27767   -0.51045   -0.50291   -0.15133   -0.13206
  -0.10360   -0.08290   -0.07684   -0.05783    0.00403    0.00695    0.01198    0.04459
   0.04954    0.23293
 kpt# 168, nband= 18, wtk=  0.00347, kpt= -0.4167 -0.4167  0.2500 (reduced coord)
  -3.73274   -2.27802   -2.27800   -2.27767   -0.51927   -0.50536   -0.14940   -0.12888
  -0.08400   -0.07760   -0.05615   -0.04809   -0.00443    0.00844    0.01306    0.04531
   0.05817    0.20794
 kpt# 169, nband= 18, wtk=  0.00694, kpt= -0.3333 -0.4167  0.2500 (reduced coord)
  -3.73274   -2.27803   -2.27800   -2.27767   -0.51485   -0.50420   -0.15648   -0.13175
  -0.08297   -0.07921   -0.06666   -0.05309   -0.00190    0.00742    0.01158    0.04867
   0.05460    0.20708
 kpt# 170, nband= 18, wtk=  0.00347, kpt= -0.3333 -0.3333  0.2500 (reduced coord)
  -3.73274   -2.27803   -2.27800   -2.27767   -0.51230   -0.50405   -0.16445   -0.13450
  -0.07899   -0.07716   -0.06191   -0.05876   -0.00537    0.00633    0.01036    0.05160
   0.05852    0.19492
 kpt# 171, nband= 18, wtk=  0.00116, kpt=  0.3333  0.3333  0.3333 (reduced coord)
  -3.73274   -2.27799   -2.27799   -2.27768   -0.54112   -0.51374   -0.14261   -0.07993
  -0.07993   -0.04649   -0.01385   -0.01385   -0.00390   -0.00390    0.00767    0.06339
   0.06339    0.20846
 kpt# 172, nband= 18, wtk=  0.00347, kpt=  0.4167  0.3333  0.3333 (reduced coord)
  -3.73274   -2.27799   -2.27799   -2.27768   -0.53929   -0.51312   -0.13954   -0.08725
  -0.07962   -0.04375   -0.03175   -0.02278   -0.00147    0.00264    0.01268    0.05557
   0.06211    0.22261
 kpt# 173, nband= 18, wtk=  0.00347, kpt=  0.5000  0.3333  0.3333 (reduced coord)
  -3.73274   -2.27800   -2.27799   -2.27768   -0.53439   -0.51102   -0.13481   -0.10172
  -0.07902   -0.06159   -0.03698   -0.03534   -0.00188    0.00860    0.01702    0.04161
   0.05931    0.24132
 kpt# 174, nband= 18, wtk=  0.00347, kpt= -0.4167  0.3333  0.3333 (reduced coord)
  -3.73274   -2.27801   -2.27799   -2.27767   -0.52725   -0.50810   -0.13511   -0.11643
  -0.08341   -0.07827   -0.04693   -0.03851   -0.00316    0.01015    0.01669    0.03672
   0.05764    0.23290
 kpt# 175, nband= 18, wtk=  0.00347, kpt= -0.3333  0.3333  0.3333 (reduced coord)
  -3.73274   -2.27802   -2.27800   -2.27767   -0.51925   -0.50541   -0.14929   -0.12725
  -0.08621   -0.07757   -0.05611   -0.04791   -0.00443    0.00851    0.01365    0.04280
   0.05775    0.21132
 kpt# 176, nband= 18, wtk=  0.00347, kpt=  0.4167  0.4167  0.3333 (reduced coord)
  -3.73274   -2.27799   -2.27799   -2.27768   -0.53915   -0.51331   -0.13829   -0.08745
  -0.07973   -0.04565   -0.03203   -0.02247   -0.00137    0.00252    0.01263    0.05618
   0.06203    0.22600
 kpt# 177, nband= 18, wtk=  0.00694, kpt=  0.5000  0.4167  0.3333 (reduced coord)
  -3.73274   -2.27800   -2.27799   -2.27768   -0.53582   -0.51188   -0.13476   -0.09797
  -0.07964   -0.05264   -0.03962   -0.03406   -0.00021    0.00694    0.01617    0.04712
   0.05857    0.24254
 kpt# 178, nband= 18, wtk=  0.00694, kpt= -0.4167  0.4167  0.3333 (reduced coord)
  -3.73274   -2.27801   -2.27799   -2.27767   -0.52986   -0.50927   -0.13245   -0.11151
  -0.07995   -0.07539   -0.04735   -0.03703   -0.00050    0.00988    0.01702    0.03978
   0.05464    0.24669
 kpt# 179, nband= 18, wtk=  0.00694, kpt= -0.3333  0.4167  0.3333 (reduced coord)
  -3.73274   -2.27802   -2.27800   -2.27767   -0.52233   -0.50634   -0.14036   -0.12370
  -0.08567   -0.08035   -0.05821   -0.04273   -0.00128    0.00979    0.01440    0.04131
   0.05382    0.22772
 kpt# 180, nband= 18, wtk=  0.00347, kpt=  0.5000  0.5000  0.3333 (reduced coord)
  -3.73274   -2.27800   -2.27799   -2.27768   -0.53421   -0.51125   -0.13323   -0.10287
  -0.07915   -0.06083   -0.03927   -0.03512   -0.00178    0.00849    0.01651    0.04347
   0.05945    0.24632
 kpt# 181, nband= 18, wtk=  0.00694, kpt= -0.4167  0.5000  0.3333 (reduced coord)
  -3.73274   -2.27801   -2.27799   -2.27767   -0.52982   -0.50932   -0.13205   -0.11221
  -0.08001   -0.07470   -0.04740   -0.03750   -0.00043    0.00982    0.01666    0.04083
   0.05461    0.24771
 kpt# 182, nband= 18, wtk=  0.00347, kpt= -0.3333  0.5000  0.3333 (reduced coord)
  -3.73274   -2.27802   -2.27800   -2.27767   -0.52343   -0.50669   -0.13588   -0.12171
  -0.08494   -0.08273   -0.06202   -0.04023    0.00112    0.01071    0.01425    0.04340
   0.04813    0.24566
 kpt# 183, nband= 18, wtk=  0.00347, kpt= -0.4167 -0.4167  0.3333 (reduced coord)
  -3.73274   -2.27801   -2.27799   -2.27767   -0.52714   -0.50823   -0.13434   -0.11820
  -0.08149   -0.07832   -0.04690   -0.03961   -0.00312    0.01006    0.01595    0.03860
   0.05794    0.23186
 kpt# 184, nband= 18, wtk=  0.00116, kpt=  0.4167  0.4167  0.4167 (reduced coord)
  -3.73274   -2.27799   -2.27799   -2.27768   -0.54070   -0.51431   -0.13875   -0.07984
  -0.07984   -0.05317   -0.01411   -0.01411   -0.00389   -0.00389    0.00783    0.06356
   0.06356    0.21912
 kpt# 185, nband= 18, wtk=  0.00347, kpt=  0.5000  0.4167  0.4167 (reduced coord)
  -3.73274   -2.27799   -2.27799   -2.27768   -0.53894   -0.51358   -0.13644   -0.08805
  -0.07958   -0.04781   -0.03219   -0.02284   -0.00147    0.00255    0.01288    0.05582
   0.06224    0.23128
 kpt# 186, nband= 18, wtk=  0.00347, kpt= -0.4167  0.4167  0.4167 (reduced coord)
  -3.73274   -2.27800   -2.27799   -2.27768   -0.53415   -0.51132   -0.13284   -0.10292
  -0.07903   -0.06080   -0.03964   -0.03532   -0.00186    0.00852    0.01695    0.04237
   0.05949    0.24547
 kpt# 187, nband= 18, wtk=  0.00347, kpt=  0.5000  0.5000  0.4167 (reduced coord)
  -3.73274   -2.27799   -2.27799   -2.27768   -0.53889   -0.51365   -0.13593   -0.08817
  -0.07962   -0.04847   -0.03232   -0.02272   -0.00143    0.00251    0.01286    0.05603
   0.06221    0.23296
 kpt# 188, nband= 18, wtk=  0.00347, kpt= -0.4167  0.5000  0.4167 (reduced coord)
  -3.73274   -2.27800   -2.27799   -2.27768   -0.53567   -0.51208   -0.13344   -0.09863
  -0.07960   -0.05207   -0.04156   -0.03414   -0.00022    0.00690    0.01633    0.04703
   0.05868    0.24607
 kpt# 189, nband= 18, wtk=  0.00058, kpt=  0.5000  0.5000  0.5000 (reduced coord)
  -3.73274   -2.27799   -2.27799   -2.27768   -0.54054   -0.51453   -0.13721   -0.07981
  -0.07981   -0.05571   -0.01421   -0.01421   -0.00389   -0.00389    0.00790    0.06362
   0.06362    0.22409
