 Eigenvalues (hartree) for nkpt= 189  k points:
 kpt#   1, nband= 18, wtk=  0.00058, kpt=  0.0000  0.0000  0.0000 (reduced coord)
  -3.73288   -2.27824   -2.27824   -2.27759   -0.54455   -0.51166   -0.15532   -0.08307
  -0.08307   -0.01898   -0.01364   -0.01364   -0.00444   -0.00444    0.00650    0.06401
   0.06401    0.17576
 kpt#   2, nband= 18, wtk=  0.00347, kpt=  0.0833  0.0000  0.0000 (reduced coord)
  -3.73288   -2.27825   -2.27824   -2.27759   -0.54281   -0.51094   -0.15300   -0.08807
  -0.08286   -0.03270   -0.02268   -0.01767   -0.00153    0.00247    0.01015    0.05704
   0.06241    0.18884
 kpt#   3, nband= 18, wtk=  0.00347, kpt=  0.1667  0.0000  0.0000 (reduced coord)
  -3.73288   -2.27826   -2.27825   -2.27759   -0.53785   -0.50900   -0.14676   -0.10014
  -0.08227   -0.06413   -0.03534   -0.01923   -0.00159    0.00867    0.01373    0.04582
   0.05923    0.21861
 kpt#   4, nband= 18, wtk=  0.00347, kpt=  0.2500  0.0000  0.0000 (reduced coord)
  -3.73288   -2.27827   -2.27825   -2.27758   -0.53045   -0.50650   -0.14061   -0.11514
  -0.09122   -0.08147   -0.04699   -0.03023   -0.00251    0.01015    0.01479    0.04290
   0.05732    0.23818
 kpt#   5, nband= 18, wtk=  0.00347, kpt=  0.3333  0.0000  0.0000 (reduced coord)
  -3.73288   -2.27828   -2.27825   -2.27758   -0.52196   -0.50450   -0.14838   -0.12575
  -0.09908   -0.08066   -0.05625   -0.04608   -0.00356    0.00823    0.01326    0.04643
   0.05735    0.22432
 kpt#   6, nband= 18, wtk=  0.00347, kpt=  0.4167  0.0000  0.0000 (reduced coord)
  -3.73288   -2.27829   -2.27826   -2.27758   -0.51421   -0.50413   -0.16330   -0.13215
  -0.09023   -0.08002   -0.06223   -0.06059   -0.00440    0.00579    0.01009    0.05057
   0.05805    0.21351
 kpt#   7, nband= 18, wtk=  0.00174, kpt=  0.5000  0.0000  0.0000 (reduced coord)
  -3.73288   -2.27829   -2.27826   -2.27758   -0.51019   -0.50507   -0.16931   -0.13472
  -0.08183   -0.07976   -0.06935   -0.06431   -0.00476    0.00477    0.00834    0.05226
   0.05839    0.20993
 kpt#   8, nband= 18, wtk=  0.00347, kpt=  0.0833  0.0833  0.0000 (reduced coord)
  -3.73288   -2.27825   -2.27824   -2.27759   -0.54277   -0.51099   -0.15270   -0.08804
  -0.08290   -0.03304   -0.02257   -0.01820   -0.00150    0.00243    0.01020    0.05729
   0.06238    0.18952
 kpt#   9, nband= 18, wtk=  0.00694, kpt=  0.1667  0.0833  0.0000 (reduced coord)
  -3.73288   -2.27825   -2.27825   -2.27759   -0.53938   -0.50971   -0.14818   -0.09620
  -0.08286   -0.05457   -0.03423   -0.01870   -0.00038    0.00735    0.01308    0.05030
   0.05808    0.21136
 kpt#  10, nband= 18, wtk=  0.00694, kpt=  0.2500  0.0833  0.0000 (reduced coord)
  -3.73288   -2.27826   -2.27825   -2.27758   -0.53317   -0.50750   -0.14152   -0.10856
  -0.08346   -0.08147   -0.04726   -0.02533   -0.00052    0.01076    0.01476    0.04439
   0.05418    0.23967
 kpt#  11, nband= 18, wtk=  0.00694, kpt=  0.3333  0.0833  0.0000 (reduced coord)
  -3.73288   -2.27828   -2.27825   -2.27758   -0.52519   -0.50522   -0.14156   -0.12088
  -0.09839   -0.08332   -0.05817   -0.03893   -0.00103    0.01000    0.01447    0.04324
   0.05456    0.23921
 kpt#  12, nband= 18, wtk=  0.00694, kpt=  0.4167  0.0833  0.0000 (reduced coord)
  -3.73288   -2.27828   -2.27826   -2.27758   -0.51703   -0.50396   -0.15530   -0.12887
  -0.09508   -0.08261   -0.06709   -0.05367   -0.00135    0.00705    0.01208    0.04670
   0.05550    0.22597
 kpt#  13, nband= 18, wtk=  0.00694, kpt=  0.5000  0.0833  0.0000 (reduced coord)
  -3.73288   -2.27829   -2.27826   -2.27758   -0.51079   -0.50449   -0.16599   -0.13336
  -0.08653   -0.08048   -0.07232   -0.06579   -0.00169    0.00547    0.00921    0.05119
   0.05485    0.21826
 kpt#  14, nband= 18, wtk=  0.00694, kpt= -0.4167  0.0833  0.0000 (reduced coord)
  -3.73288   -2.27829   -2.27826   -2.27758   -0.51096   -0.50431   -0.16586   -0.13337
  -0.08675   -0.08102   -0.07228   -0.06558   -0.00163    0.00545    0.00922    0.05128
   0.05545    0.21779
 kpt#  15, nband= 18, wtk=  0.00694, kpt= -0.3333  0.0833  0.0000 (reduced coord)
  -3.73288   -2.27828   -2.27826   -2.27758   -0.51726   -0.50369   -0.15490   -0.12914
  -0.09593   -0.08305   -0.06680   -0.05367   -0.00124    0.00704    0.01190    0.04778
   0.05633    0.22484
 kpt#  16, nband= 18, wtk=  0.00694, kpt= -0.2500  0.0833  0.0000 (reduced coord)
  -3.73288   -2.27828   -2.27825   -2.27758   -0.52541   -0.50495   -0.14132   -0.12158
  -0.09888   -0.08356   -0.05789   -0.03868   -0.00089    0.01009    0.01383    0.04524
   0.05491    0.23860
 kpt#  17, nband= 18, wtk=  0.00694, kpt= -0.1667  0.0833  0.0000 (reduced coord)
  -3.73288   -2.27826   -2.27825   -2.27758   -0.53335   -0.50727   -0.14236   -0.10837
  -0.08375   -0.08155   -0.04705   -0.02435   -0.00042    0.01101    0.01394    0.04627
   0.05379    0.23774
 kpt#  18, nband= 18, wtk=  0.00347, kpt= -0.0833  0.0833  0.0000 (reduced coord)
  -3.73288   -2.27825   -2.27825   -2.27759   -0.53950   -0.50955   -0.14896   -0.09604
  -0.08290   -0.05450   -0.03416   -0.01723   -0.00037    0.00744    0.01265    0.05058
   0.05792    0.20922
 kpt#  19, nband= 18, wtk=  0.00347, kpt=  0.1667  0.1667  0.0000 (reduced coord)
  -3.73288   -2.27826   -2.27825   -2.27759   -0.53771   -0.50919   -0.14585   -0.10041
  -0.08239   -0.06439   -0.03513   -0.02082   -0.00154    0.00857    0.01345    0.04769
   0.05936    0.21937
 kpt#  20, nband= 18, wtk=  0.00694, kpt=  0.2500  0.1667  0.0000 (reduced coord)
  -3.73288   -2.27826   -2.27825   -2.27758   -0.53309   -0.50761   -0.14105   -0.10951
  -0.08352   -0.08075   -0.04710   -0.02612   -0.00037    0.01067    0.01387    0.04775
   0.05353    0.23959
 kpt#  21, nband= 18, wtk=  0.00694, kpt=  0.3333  0.1667  0.0000 (reduced coord)
  -3.73288   -2.27827   -2.27825   -2.27758   -0.52630   -0.50555   -0.13884   -0.11901
  -0.09518   -0.08650   -0.06132   -0.03598    0.00082    0.01188    0.01343    0.04480
   0.05127    0.25109
 kpt#  22, nband= 18, wtk=  0.00694, kpt=  0.4167  0.1667  0.0000 (reduced coord)
  -3.73288   -2.27828   -2.27826   -2.27758   -0.51863   -0.50388   -0.14654   -0.12661
  -0.09923   -0.08794   -0.07214   -0.04903    0.00183    0.00859    0.01345    0.04211
   0.05361    0.24446
 kpt#  23, nband= 18, wtk=  0.00694, kpt=  0.5000  0.1667  0.0000 (reduced coord)
  -3.73288   -2.27828   -2.27826   -2.27758   -0.51176   -0.50356   -0.15747   -0.13099
  -0.09983   -0.08170   -0.08055   -0.06173    0.00233    0.00615    0.01170    0.04516
   0.05277    0.23597
 kpt#  24, nband= 18, wtk=  0.00694, kpt= -0.4167  0.1667  0.0000 (reduced coord)
  -3.73288   -2.27829   -2.27826   -2.27758   -0.50838   -0.50422   -0.16193   -0.13197
  -0.10006   -0.08445   -0.07337   -0.07186    0.00155    0.00709    0.00998    0.04734
   0.05218    0.23203
 kpt#  25, nband= 18, wtk=  0.00694, kpt= -0.3333  0.1667  0.0000 (reduced coord)
  -3.73288   -2.27828   -2.27826   -2.27758   -0.51213   -0.50316   -0.15701   -0.13025
  -0.10029   -0.08455   -0.07971   -0.06193    0.00243    0.00610    0.01185    0.04370
   0.05581    0.23480
 kpt#  26, nband= 18, wtk=  0.00694, kpt= -0.2500  0.1667  0.0000 (reduced coord)
  -3.73288   -2.27828   -2.27826   -2.27758   -0.51902   -0.50343   -0.14574   -0.12560
  -0.10130   -0.08971   -0.07166   -0.04935    0.00191    0.00856    0.01357    0.04145
   0.05645    0.24353
 kpt#  27, nband= 18, wtk=  0.00347, kpt= -0.1667  0.1667  0.0000 (reduced coord)
  -3.73288   -2.27827   -2.27825   -2.27758   -0.52665   -0.50512   -0.13918   -0.11735
  -0.09807   -0.08681   -0.06098   -0.03539    0.00084    0.01218    0.01335    0.04409
   0.05299    0.25198
 kpt#  28, nband= 18, wtk=  0.00347, kpt=  0.2500  0.2500  0.0000 (reduced coord)
  -3.73288   -2.27827   -2.27825   -2.27758   -0.53021   -0.50680   -0.13959   -0.11834
  -0.08781   -0.08161   -0.04690   -0.03165   -0.00256    0.00990    0.01345    0.04747
   0.05809    0.23554
 kpt#  29, nband= 18, wtk=  0.00694, kpt=  0.3333  0.2500  0.0000 (reduced coord)
  -3.73288   -2.27828   -2.27825   -2.27758   -0.52507   -0.50536   -0.14117   -0.12628
  -0.09211   -0.08361   -0.05816   -0.03930   -0.00089    0.01000    0.01246    0.04961
   0.05453    0.23069
 kpt#  30, nband= 18, wtk=  0.00694, kpt=  0.4167  0.2500  0.0000 (reduced coord)
  -3.73288   -2.27828   -2.27826   -2.27758   -0.51862   -0.50387   -0.14711   -0.12968
  -0.09551   -0.08768   -0.07195   -0.04861    0.00195    0.00870    0.01222    0.04463
   0.05470    0.23557
 kpt#  31, nband= 18, wtk=  0.00694, kpt=  0.5000  0.2500  0.0000 (reduced coord)
  -3.73288   -2.27828   -2.27827   -2.27758   -0.51223   -0.50309   -0.15196   -0.13129
  -0.10828   -0.08439   -0.07939   -0.05921    0.00383    0.00627    0.01265    0.04241
   0.05359    0.23970
 kpt#  32, nband= 18, wtk=  0.00694, kpt= -0.4167  0.2500  0.0000 (reduced coord)
  -3.73288   -2.27828   -2.27827   -2.27758   -0.50739   -0.50365   -0.15402   -0.13099
  -0.11731   -0.08855   -0.07484   -0.06882    0.00232    0.00850    0.01166    0.04440
   0.05023    0.24023
 kpt#  33, nband= 18, wtk=  0.00694, kpt= -0.3333  0.2500  0.0000 (reduced coord)
  -3.73288   -2.27828   -2.27827   -2.27758   -0.50769   -0.50335   -0.15355   -0.12906
  -0.11870   -0.08802   -0.07771   -0.06874    0.00241    0.00837    0.01199    0.04203
   0.05284    0.24096
 kpt#  34, nband= 18, wtk=  0.00347, kpt= -0.2500  0.2500  0.0000 (reduced coord)
  -3.73288   -2.27828   -2.27826   -2.27758   -0.51262   -0.50268   -0.15058   -0.12798
  -0.11057   -0.08639   -0.08147   -0.06048    0.00390    0.00625    0.01340    0.03953
   0.05657    0.24354
 kpt#  35, nband= 18, wtk=  0.00347, kpt=  0.3333  0.3333  0.0000 (reduced coord)
  -3.73288   -2.27828   -2.27825   -2.27758   -0.52175   -0.50473   -0.14953   -0.13182
  -0.08971   -0.08055   -0.05670   -0.04580   -0.00386    0.00798    0.01187    0.05305
   0.05897    0.21006
 kpt#  36, nband= 18, wtk=  0.00694, kpt=  0.4167  0.3333  0.0000 (reduced coord)
  -3.73288   -2.27828   -2.27826   -2.27758   -0.51704   -0.50390   -0.15748   -0.13417
  -0.08557   -0.08305   -0.06714   -0.05229   -0.00158    0.00689    0.01081    0.05322
   0.05759    0.20792
 kpt#  37, nband= 18, wtk=  0.00694, kpt=  0.5000  0.3333  0.0000 (reduced coord)
  -3.73288   -2.27828   -2.27826   -2.27758   -0.51197   -0.50329   -0.15997   -0.13397
  -0.09775   -0.08264   -0.07564   -0.05927    0.00206    0.00606    0.01090    0.04743
   0.05626    0.21793
 kpt#  38, nband= 18, wtk=  0.00694, kpt= -0.4167  0.3333  0.0000 (reduced coord)
  -3.73288   -2.27828   -2.27827   -2.27758   -0.50763   -0.50338   -0.15595   -0.13115
  -0.11761   -0.08861   -0.07264   -0.06672    0.00214    0.00835    0.01142    0.04522
   0.05160    0.23039
 kpt#  39, nband= 18, wtk=  0.00347, kpt= -0.3333  0.3333  0.0000 (reduced coord)
  -3.73288   -2.27828   -2.27828   -2.27758   -0.50472   -0.50472   -0.14957   -0.13012
  -0.12777   -0.09174   -0.07247   -0.07102    0.00179    0.01072    0.01094    0.04534
   0.04818    0.23907
 kpt#  40, nband= 18, wtk=  0.00347, kpt=  0.4167  0.4167  0.0000 (reduced coord)
  -3.73288   -2.27829   -2.27826   -2.27758   -0.51432   -0.50394   -0.16658   -0.13745
  -0.07945   -0.07923   -0.06367   -0.05738   -0.00519    0.00571    0.00956    0.05830
   0.06031    0.19195
 kpt#  41, nband= 18, wtk=  0.00694, kpt=  0.5000  0.4167  0.0000 (reduced coord)
  -3.73288   -2.27829   -2.27826   -2.27758   -0.51128   -0.50390   -0.16952   -0.13793
  -0.08156   -0.07799   -0.07062   -0.06158   -0.00258    0.00537    0.00892    0.05624
   0.05918    0.19474
 kpt#  42, nband= 18, wtk=  0.00347, kpt= -0.4167  0.4167  0.0000 (reduced coord)
  -3.73288   -2.27829   -2.27826   -2.27758   -0.50886   -0.50366   -0.16527   -0.13502
  -0.09896   -0.08457   -0.06906   -0.06604    0.00090    0.00682    0.00963    0.04944
   0.05604    0.21089
 kpt#  43, nband= 18, wtk=  0.00174, kpt=  0.5000  0.5000  0.0000 (reduced coord)
  -3.73288   -2.27829   -2.27826   -2.27758   -0.51087   -0.50427   -0.17317   -0.13969
  -0.07843   -0.07192   -0.06644   -0.06359   -0.00589    0.00479    0.00830    0.06034
   0.06088    0.18542
 kpt#  44, nband= 18, wtk=  0.00116, kpt=  0.0833  0.0833  0.0833 (reduced coord)
  -3.73288   -2.27824   -2.27824   -2.27759   -0.54443   -0.51183   -0.15439   -0.08305
  -0.08305   -0.02144   -0.01373   -0.01373   -0.00444   -0.00444    0.00679    0.06407
   0.06407    0.17858
 kpt#  45, nband= 18, wtk=  0.00347, kpt=  0.1667  0.0833  0.0833 (reduced coord)
  -3.73288   -2.27825   -2.27824   -2.27759   -0.54262   -0.51122   -0.15154   -0.08823
  -0.08276   -0.03273   -0.02291   -0.02109   -0.00163    0.00245    0.01088    0.05675
   0.06258    0.19324
 kpt#  46, nband= 18, wtk=  0.00347, kpt=  0.2500  0.0833  0.0833 (reduced coord)
  -3.73288   -2.27826   -2.27825   -2.27759   -0.53759   -0.50935   -0.14511   -0.10055
  -0.08211   -0.06396   -0.03565   -0.02190   -0.00177    0.00862    0.01482    0.04425
   0.05945    0.22337
 kpt#  47, nband= 18, wtk=  0.00347, kpt=  0.3333  0.0833  0.0833 (reduced coord)
  -3.73288   -2.27827   -2.27825   -2.27758   -0.53016   -0.50688   -0.13987   -0.11498
  -0.09066   -0.08124   -0.04736   -0.03129   -0.00273    0.01011    0.01576    0.04005
   0.05752    0.23800
 kpt#  48, nband= 18, wtk=  0.00347, kpt=  0.4167  0.0833  0.0833 (reduced coord)
  -3.73288   -2.27828   -2.27825   -2.27758   -0.52166   -0.50485   -0.14909   -0.12531
  -0.09746   -0.08038   -0.05665   -0.04623   -0.00376    0.00822    0.01372    0.04393
   0.05752    0.22432
 kpt#  49, nband= 18, wtk=  0.00347, kpt=  0.5000  0.0833  0.0833 (reduced coord)
  -3.73288   -2.27829   -2.27826   -2.27758   -0.51397   -0.50439   -0.16383   -0.13235
  -0.08850   -0.07978   -0.06256   -0.06046   -0.00455    0.00580    0.01013    0.04947
   0.05821    0.21265
 kpt#  50, nband= 18, wtk=  0.00347, kpt= -0.4167  0.0833  0.0833 (reduced coord)
  -3.73288   -2.27829   -2.27826   -2.27758   -0.51024   -0.50501   -0.16959   -0.13508
  -0.08118   -0.07968   -0.06893   -0.06445   -0.00482    0.00477    0.00835    0.05275
   0.05856    0.20792
 kpt#  51, nband= 18, wtk=  0.00347, kpt= -0.3333  0.0833  0.0833 (reduced coord)
  -3.73288   -2.27829   -2.27826   -2.27758   -0.51443   -0.50388   -0.16331   -0.13277
  -0.09025   -0.08013   -0.06213   -0.06020   -0.00437    0.00576    0.00998    0.05249
   0.05822    0.21082
 kpt#  52, nband= 18, wtk=  0.00347, kpt= -0.2500  0.0833  0.0833 (reduced coord)
  -3.73288   -2.27828   -2.27825   -2.27758   -0.52213   -0.50429   -0.14807   -0.12717
  -0.09870   -0.08084   -0.05604   -0.04586   -0.00347    0.00818    0.01273    0.04926
   0.05748    0.22184
 kpt#  53, nband= 18, wtk=  0.00347, kpt= -0.1667  0.0833  0.0833 (reduced coord)
  -3.73288   -2.27827   -2.27825   -2.27758   -0.53056   -0.50635   -0.14087   -0.11583
  -0.09087   -0.08163   -0.04676   -0.02990   -0.00241    0.01011    0.01399    0.04552
   0.05736    0.23784
 kpt#  54, nband= 18, wtk=  0.00347, kpt= -0.0833  0.0833  0.0833 (reduced coord)
  -3.73288   -2.27826   -2.27825   -2.27759   -0.53789   -0.50894   -0.14703   -0.10008
  -0.08237   -0.06430   -0.03515   -0.01883   -0.00150    0.00865    0.01321    0.04711
   0.05920    0.21704
 kpt#  55, nband= 18, wtk=  0.00347, kpt=  0.1667  0.1667  0.0833 (reduced coord)
  -3.73288   -2.27825   -2.27824   -2.27759   -0.54251   -0.51137   -0.15070   -0.08816
  -0.08287   -0.03378   -0.02262   -0.02232   -0.00153    0.00234    0.01095    0.05742
   0.06249    0.19519
 kpt#  56, nband= 18, wtk=  0.00694, kpt=  0.2500  0.1667  0.0833 (reduced coord)
  -3.73288   -2.27825   -2.27825   -2.27759   -0.53907   -0.51015   -0.14594   -0.09672
  -0.08276   -0.05469   -0.03441   -0.02267   -0.00041    0.00714    0.01408    0.04964
   0.05848    0.21739
 kpt#  57, nband= 18, wtk=  0.00694, kpt=  0.3333  0.1667  0.0833 (reduced coord)
  -3.73288   -2.27826   -2.27825   -2.27758   -0.53283   -0.50796   -0.13984   -0.10928
  -0.08303   -0.08095   -0.04757   -0.02744   -0.00064    0.01042    0.01574    0.04246
   0.05462    0.24232
 kpt#  58, nband= 18, wtk=  0.00694, kpt=  0.4167  0.1667  0.0833 (reduced coord)
  -3.73288   -2.27828   -2.27825   -2.27758   -0.52485   -0.50563   -0.14186   -0.12116
  -0.09623   -0.08303   -0.05854   -0.03938   -0.00120    0.00987    0.01492    0.04151
   0.05443    0.23804
 kpt#  59, nband= 18, wtk=  0.00694, kpt=  0.5000  0.1667  0.0833 (reduced coord)
  -3.73288   -2.27828   -2.27826   -2.27758   -0.51674   -0.50428   -0.15611   -0.12947
  -0.09264   -0.08208   -0.06743   -0.05342   -0.00153    0.00703    0.01210    0.04616
   0.05514    0.22387
 kpt#  60, nband= 18, wtk=  0.00694, kpt= -0.4167  0.1667  0.0833 (reduced coord)
  -3.73288   -2.27829   -2.27826   -2.27758   -0.51068   -0.50460   -0.16661   -0.13401
  -0.08538   -0.07972   -0.07219   -0.06546   -0.00184    0.00548    0.00915    0.05168
   0.05485    0.21493
 kpt#  61, nband= 18, wtk=  0.00694, kpt= -0.3333  0.1667  0.0833 (reduced coord)
  -3.73288   -2.27829   -2.27826   -2.27758   -0.51115   -0.50410   -0.16628   -0.13405
  -0.08580   -0.08135   -0.07204   -0.06497   -0.00170    0.00542    0.00919    0.05190
   0.05656    0.21390
 kpt#  62, nband= 18, wtk=  0.00694, kpt= -0.2500  0.1667  0.0833 (reduced coord)
  -3.73288   -2.27828   -2.27826   -2.27758   -0.51740   -0.50353   -0.15503   -0.13024
  -0.09490   -0.08334   -0.06660   -0.05342   -0.00120    0.00701    0.01160    0.04915
   0.05739    0.22124
 kpt#  63, nband= 18, wtk=  0.00694, kpt= -0.1667  0.1667  0.0833 (reduced coord)
  -3.73288   -2.27828   -2.27825   -2.27758   -0.52546   -0.50488   -0.14120   -0.12301
  -0.09770   -0.08371   -0.05777   -0.03862   -0.00082    0.01014    0.01319    0.04715
   0.05522    0.23652
 kpt#  64, nband= 18, wtk=  0.00694, kpt= -0.0833  0.1667  0.0833 (reduced coord)
  -3.73288   -2.27826   -2.27825   -2.27758   -0.53332   -0.50731   -0.14220   -0.10868
  -0.08376   -0.08134   -0.04699   -0.02462   -0.00036    0.01100    0.01360    0.04756
   0.05349    0.23751
 kpt#  65, nband= 18, wtk=  0.00347, kpt=  0.2500  0.2500  0.0833 (reduced coord)
  -3.73288   -2.27826   -2.27825   -2.27759   -0.53735   -0.50968   -0.14341   -0.10122
  -0.08232   -0.06421   -0.03529   -0.02472   -0.00165    0.00844    0.01421    0.04747
   0.05968    0.22548
 kpt#  66, nband= 18, wtk=  0.00694, kpt=  0.3333  0.2500  0.0833 (reduced coord)
  -3.73288   -2.27826   -2.27825   -2.27758   -0.53271   -0.50811   -0.13908   -0.11081
  -0.08321   -0.07959   -0.04737   -0.02865   -0.00041    0.01025    0.01453    0.04674
   0.05405    0.24373
 kpt#  67, nband= 18, wtk=  0.00694, kpt=  0.4167  0.2500  0.0833 (reduced coord)
  -3.73288   -2.27827   -2.27825   -2.27758   -0.52594   -0.50599   -0.13842   -0.12059
  -0.09230   -0.08612   -0.06173   -0.03674    0.00081    0.01151    0.01360    0.04527
   0.04985    0.25018
 kpt#  68, nband= 18, wtk=  0.00694, kpt=  0.5000  0.2500  0.0833 (reduced coord)
  -3.73288   -2.27828   -2.27826   -2.27758   -0.51833   -0.50422   -0.14727   -0.12806
  -0.09690   -0.08637   -0.07256   -0.04867    0.00180    0.00863    0.01304    0.04316
   0.05196    0.24248
 kpt#  69, nband= 18, wtk=  0.00694, kpt= -0.4167  0.2500  0.0833 (reduced coord)
  -3.73288   -2.27828   -2.27826   -2.27758   -0.51157   -0.50375   -0.15829   -0.13205
  -0.09886   -0.08109   -0.07953   -0.06097    0.00221    0.00616    0.01144    0.04658
   0.05167    0.23236
 kpt#  70, nband= 18, wtk=  0.00694, kpt= -0.3333  0.2500  0.0833 (reduced coord)
  -3.73288   -2.27829   -2.27826   -2.27758   -0.50849   -0.50410   -0.16262   -0.13263
  -0.09963   -0.08464   -0.07245   -0.07079    0.00144    0.00704    0.00992    0.04735
   0.05336    0.22765
 kpt#  71, nband= 18, wtk=  0.00694, kpt= -0.2500  0.2500  0.0833 (reduced coord)
  -3.73288   -2.27828   -2.27826   -2.27758   -0.51223   -0.50304   -0.15750   -0.13088
  -0.09965   -0.08500   -0.07883   -0.06150    0.00240    0.00608    0.01170    0.04398
   0.05702    0.23088
 kpt#  72, nband= 18, wtk=  0.00694, kpt= -0.1667  0.2500  0.0833 (reduced coord)
  -3.73288   -2.27828   -2.27826   -2.27758   -0.51902   -0.50342   -0.14591   -0.12659
  -0.09999   -0.08981   -0.07158   -0.04923    0.00194    0.00859    0.01325    0.04206
   0.05683    0.24123
 kpt#  73, nband= 18, wtk=  0.00694, kpt= -0.0833  0.2500  0.0833 (reduced coord)
  -3.73288   -2.27827   -2.27825   -2.27758   -0.52656   -0.50523   -0.13910   -0.11780
  -0.09729   -0.08673   -0.06106   -0.03553    0.00084    0.01211    0.01336    0.04430
   0.05251    0.25174
 kpt#  74, nband= 18, wtk=  0.00347, kpt=  0.3333  0.3333  0.0833 (reduced coord)
  -3.73288   -2.27827   -2.27825   -2.27758   -0.52983   -0.50729   -0.13819   -0.11983
  -0.08553   -0.08144   -0.04723   -0.03361   -0.00274    0.00979    0.01374    0.04641
   0.05858    0.23378
 kpt#  75, nband= 18, wtk=  0.00694, kpt=  0.4167  0.3333  0.0833 (reduced coord)
  -3.73288   -2.27828   -2.27825   -2.27758   -0.52470   -0.50580   -0.14122   -0.12733
  -0.08889   -0.08339   -0.05861   -0.04009   -0.00102    0.00979    0.01258    0.04902
   0.05426    0.22844
 kpt#  76, nband= 18, wtk=  0.00694, kpt=  0.5000  0.3333  0.0833 (reduced coord)
  -3.73288   -2.27828   -2.27826   -2.27758   -0.51832   -0.50422   -0.14780   -0.13084
  -0.09402   -0.08541   -0.07250   -0.04830    0.00194    0.00877    0.01179    0.04606
   0.05265    0.23341
 kpt#  77, nband= 18, wtk=  0.00694, kpt= -0.4167  0.3333  0.0833 (reduced coord)
  -3.73288   -2.27828   -2.27827   -2.27758   -0.51202   -0.50331   -0.15262   -0.13270
  -0.10716   -0.08380   -0.07838   -0.05834    0.00379    0.00629    0.01231    0.04392
   0.05210    0.23793
 kpt#  78, nband= 18, wtk=  0.00694, kpt= -0.3333  0.3333  0.0833 (reduced coord)
  -3.73288   -2.27828   -2.27827   -2.27758   -0.50734   -0.50369   -0.15471   -0.13183
  -0.11663   -0.08874   -0.07381   -0.06786    0.00224    0.00850    0.01150    0.04524
   0.04996    0.23778
 kpt#  79, nband= 18, wtk=  0.00694, kpt= -0.2500  0.3333  0.0833 (reduced coord)
  -3.73288   -2.27828   -2.27827   -2.27758   -0.50774   -0.50328   -0.15409   -0.12919
  -0.11866   -0.08821   -0.07683   -0.06833    0.00236    0.00833    0.01192    0.04220
   0.05327    0.23866
 kpt#  80, nband= 18, wtk=  0.00694, kpt= -0.1667  0.3333  0.0833 (reduced coord)
  -3.73288   -2.27828   -2.27826   -2.27758   -0.51257   -0.50274   -0.15077   -0.12848
  -0.11025   -0.08606   -0.08119   -0.06034    0.00388    0.00625    0.01329    0.03991
   0.05617    0.24303
 kpt#  81, nband= 18, wtk=  0.00694, kpt= -0.0833  0.3333  0.0833 (reduced coord)
  -3.73288   -2.27828   -2.27826   -2.27758   -0.51888   -0.50359   -0.14597   -0.12563
  -0.10098   -0.08906   -0.07185   -0.04928    0.00187    0.00857    0.01364    0.04148
   0.05525    0.24475
 kpt#  82, nband= 18, wtk=  0.00347, kpt=  0.4167  0.4167  0.0833 (reduced coord)
  -3.73288   -2.27828   -2.27825   -2.27758   -0.52141   -0.50512   -0.15032   -0.13214
  -0.08654   -0.08025   -0.05717   -0.04625   -0.00410    0.00794    0.01199    0.05153
   0.05938    0.20792
 kpt#  83, nband= 18, wtk=  0.00694, kpt=  0.5000  0.4167  0.0833 (reduced coord)
  -3.73288   -2.27828   -2.27826   -2.27758   -0.51676   -0.50422   -0.15821   -0.13451
  -0.08389   -0.08180   -0.06762   -0.05214   -0.00177    0.00687    0.01080    0.05341
   0.05644    0.20594
 kpt#  84, nband= 18, wtk=  0.00694, kpt= -0.4167  0.4167  0.0833 (reduced coord)
  -3.73288   -2.27828   -2.27826   -2.27758   -0.51177   -0.50350   -0.16040   -0.13448
  -0.09736   -0.08197   -0.07521   -0.05868    0.00196    0.00609    0.01077    0.04846
   0.05478    0.21660
 kpt#  85, nband= 18, wtk=  0.00694, kpt= -0.3333  0.4167  0.0833 (reduced coord)
  -3.73288   -2.27828   -2.27827   -2.27758   -0.50752   -0.50349   -0.15611   -0.13189
  -0.11694   -0.08871   -0.07238   -0.06619    0.00210    0.00840    0.01133    0.04597
   0.05082    0.23019
 kpt#  86, nband= 18, wtk=  0.00694, kpt= -0.2500  0.4167  0.0833 (reduced coord)
  -3.73288   -2.27828   -2.27828   -2.27758   -0.50472   -0.50472   -0.14956   -0.13019
  -0.12769   -0.09177   -0.07225   -0.07121    0.00179    0.01073    0.01093    0.04538
   0.04814    0.23922
 kpt#  87, nband= 18, wtk=  0.00694, kpt= -0.1667  0.4167  0.0833 (reduced coord)
  -3.73288   -2.27828   -2.27827   -2.27758   -0.50759   -0.50344   -0.15334   -0.12935
  -0.11852   -0.08810   -0.07736   -0.06912    0.00241    0.00842    0.01196    0.04247
   0.05197    0.24207
 kpt#  88, nband= 18, wtk=  0.00694, kpt= -0.0833  0.4167  0.0833 (reduced coord)
  -3.73288   -2.27828   -2.27826   -2.27758   -0.51196   -0.50334   -0.15700   -0.13029
  -0.10039   -0.08333   -0.08028   -0.06205    0.00241    0.00613    0.01185    0.04412
   0.05427    0.23676
 kpt#  89, nband= 18, wtk=  0.00347, kpt=  0.5000  0.5000  0.0833 (reduced coord)
  -3.73288   -2.27829   -2.27826   -2.27758   -0.51409   -0.50420   -0.16705   -0.13752
  -0.07895   -0.07777   -0.06404   -0.05730   -0.00537    0.00572    0.00959    0.05707
   0.06047    0.19096
 kpt#  90, nband= 18, wtk=  0.00694, kpt= -0.4167  0.5000  0.0833 (reduced coord)
  -3.73288   -2.27829   -2.27826   -2.27758   -0.51112   -0.50407   -0.16964   -0.13789
  -0.08158   -0.07749   -0.07062   -0.06157   -0.00264    0.00538    0.00890    0.05660
   0.05805    0.19479
 kpt#  91, nband= 18, wtk=  0.00694, kpt= -0.3333  0.5000  0.0833 (reduced coord)
  -3.73288   -2.27829   -2.27826   -2.27758   -0.50883   -0.50369   -0.16505   -0.13482
  -0.09896   -0.08463   -0.06928   -0.06655    0.00095    0.00684    0.00966    0.04913
   0.05593    0.21233
 kpt#  92, nband= 18, wtk=  0.00694, kpt= -0.2500  0.5000  0.0833 (reduced coord)
  -3.73288   -2.27828   -2.27827   -2.27758   -0.50771   -0.50330   -0.15548   -0.13033
  -0.11816   -0.08856   -0.07359   -0.06741    0.00221    0.00833    0.01158    0.04408
   0.05249    0.23246
 kpt#  93, nband= 18, wtk=  0.00694, kpt= -0.1667  0.5000  0.0833 (reduced coord)
  -3.73288   -2.27828   -2.27827   -2.27758   -0.50749   -0.50356   -0.15352   -0.13006
  -0.11803   -0.08832   -0.07615   -0.06925    0.00238    0.00847    0.01183    0.04336
   0.05098    0.24178
 kpt#  94, nband= 18, wtk=  0.00347, kpt= -0.0833  0.5000  0.0833 (reduced coord)
  -3.73288   -2.27829   -2.27826   -2.27758   -0.50834   -0.50426   -0.16168   -0.13172
  -0.10025   -0.08436   -0.07363   -0.07233    0.00159    0.00712    0.01000    0.04743
   0.05166    0.23367
 kpt#  95, nband= 18, wtk=  0.00347, kpt= -0.4167 -0.4167  0.0833 (reduced coord)
  -3.73288   -2.27829   -2.27826   -2.27758   -0.51083   -0.50432   -0.17292   -0.13938
  -0.07853   -0.07260   -0.06628   -0.06394   -0.00579    0.00479    0.00831    0.05974
   0.06071    0.18683
 kpt#  96, nband= 18, wtk=  0.00694, kpt= -0.3333 -0.4167  0.0833 (reduced coord)
  -3.73288   -2.27829   -2.27826   -2.27758   -0.51137   -0.50381   -0.16896   -0.13741
  -0.08172   -0.07919   -0.07095   -0.06215   -0.00238    0.00536    0.00897    0.05537
   0.05950    0.19740
 kpt#  97, nband= 18, wtk=  0.00694, kpt= -0.2500 -0.4167  0.0833 (reduced coord)
  -3.73288   -2.27828   -2.27826   -2.27758   -0.51214   -0.50312   -0.15921   -0.13306
  -0.09825   -0.08362   -0.07657   -0.06007    0.00219    0.00605    0.01114    0.04613
   0.05728    0.22137
 kpt#  98, nband= 18, wtk=  0.00694, kpt= -0.1667 -0.4167  0.0833 (reduced coord)
  -3.73288   -2.27828   -2.27826   -2.27758   -0.51243   -0.50288   -0.15128   -0.12973
  -0.10940   -0.08526   -0.08042   -0.05992    0.00386    0.00626    0.01302    0.04096
   0.05508    0.24162
 kpt#  99, nband= 18, wtk=  0.00347, kpt= -0.3333 -0.3333  0.0833 (reduced coord)
  -3.73288   -2.27829   -2.27826   -2.27758   -0.51451   -0.50375   -0.16575   -0.13673
  -0.08234   -0.07957   -0.06317   -0.05781   -0.00493    0.00570    0.00961    0.05823
   0.05987    0.19528
 kpt# 100, nband= 18, wtk=  0.00694, kpt= -0.2500 -0.3333  0.0833 (reduced coord)
  -3.73288   -2.27828   -2.27826   -2.27758   -0.51727   -0.50365   -0.15655   -0.13319
  -0.08887   -0.08340   -0.06676   -0.05260   -0.00139    0.00692    0.01098    0.05210
   0.05835    0.21169
 kpt# 101, nband= 18, wtk=  0.00694, kpt= -0.1667 -0.3333  0.0833 (reduced coord)
  -3.73288   -2.27828   -2.27826   -2.27758   -0.51888   -0.50358   -0.14642   -0.12813
  -0.09771   -0.08921   -0.07165   -0.04895    0.00195    0.00863    0.01275    0.04320
   0.05621    0.23839
 kpt# 102, nband= 18, wtk=  0.00347, kpt= -0.2500 -0.2500  0.0833 (reduced coord)
  -3.73288   -2.27828   -2.27825   -2.27758   -0.52201   -0.50441   -0.14876   -0.13071
  -0.09333   -0.08078   -0.05629   -0.04559   -0.00364    0.00804    0.01197    0.05310
   0.05841    0.21363
 kpt# 103, nband= 18, wtk=  0.00694, kpt= -0.1667 -0.2500  0.0833 (reduced coord)
  -3.73288   -2.27828   -2.27825   -2.27758   -0.52534   -0.50503   -0.14117   -0.12472
  -0.09527   -0.08372   -0.05786   -0.03880   -0.00082    0.01012    0.01268    0.04872
   0.05510    0.23362
 kpt# 104, nband= 18, wtk=  0.00347, kpt= -0.1667 -0.1667  0.0833 (reduced coord)
  -3.73288   -2.27827   -2.27825   -2.27758   -0.53048   -0.50646   -0.14054   -0.11693
  -0.08969   -0.08168   -0.04672   -0.03037   -0.00243    0.01002    0.01353    0.04718
   0.05765    0.23709
 kpt# 105, nband= 18, wtk=  0.00116, kpt=  0.1667  0.1667  0.1667 (reduced coord)
  -3.73288   -2.27824   -2.27824   -2.27759   -0.54410   -0.51232   -0.15174   -0.08297
  -0.08297   -0.02788   -0.01397   -0.01397   -0.00444   -0.00444    0.00738    0.06423
   0.06423    0.18641
 kpt# 106, nband= 18, wtk=  0.00347, kpt=  0.2500  0.1667  0.1667 (reduced coord)
  -3.73288   -2.27825   -2.27824   -2.27759   -0.54223   -0.51176   -0.14854   -0.08854
  -0.08264   -0.03335   -0.02696   -0.02321   -0.00172    0.00239    0.01183    0.05658
   0.06284    0.20179
 kpt# 107, nband= 18, wtk=  0.00347, kpt=  0.3333  0.1667  0.1667 (reduced coord)
  -3.73288   -2.27826   -2.27825   -2.27759   -0.53718   -0.50990   -0.14234   -0.10136
  -0.08193   -0.06372   -0.03600   -0.02619   -0.00195    0.00852    0.01599    0.04299
   0.05980    0.23003
 kpt# 108, nband= 18, wtk=  0.00347, kpt=  0.4167  0.1667  0.1667 (reduced coord)
  -3.73288   -2.27827   -2.27825   -2.27758   -0.52976   -0.50739   -0.13882   -0.11552
  -0.08913   -0.08100   -0.04778   -0.03298   -0.00298    0.01003    0.01660    0.03783
   0.05792    0.23712
 kpt# 109, nband= 18, wtk=  0.00347, kpt=  0.5000  0.1667  0.1667 (reduced coord)
  -3.73288   -2.27828   -2.27825   -2.27758   -0.52132   -0.50525   -0.14995   -0.12592
  -0.09425   -0.08009   -0.05713   -0.04635   -0.00402    0.00818    0.01394    0.04242
   0.05793    0.22165
 kpt# 110, nband= 18, wtk=  0.00347, kpt= -0.4167  0.1667  0.1667 (reduced coord)
  -3.73288   -2.27829   -2.27826   -2.27758   -0.51376   -0.50461   -0.16473   -0.13325
  -0.08559   -0.07945   -0.06306   -0.05983   -0.00479    0.00580    0.01009    0.04945
   0.05865    0.20840
 kpt# 111, nband= 18, wtk=  0.00347, kpt= -0.3333  0.1667  0.1667 (reduced coord)
  -3.73288   -2.27829   -2.27826   -2.27758   -0.51038   -0.50485   -0.17033   -0.13604
  -0.07946   -0.07939   -0.06779   -0.06481   -0.00501    0.00478    0.00834    0.05412
   0.05901    0.20282
 kpt# 112, nband= 18, wtk=  0.00347, kpt= -0.2500  0.1667  0.1667 (reduced coord)
  -3.73288   -2.27829   -2.27826   -2.27758   -0.51456   -0.50372   -0.16386   -0.13402
  -0.08857   -0.08008   -0.06229   -0.05943   -0.00447    0.00574    0.00984    0.05480
   0.05866    0.20588
 kpt# 113, nband= 18, wtk=  0.00347, kpt= -0.1667  0.1667  0.1667 (reduced coord)
  -3.73288   -2.27828   -2.27825   -2.27758   -0.52215   -0.50426   -0.14821   -0.12902
  -0.09657   -0.08088   -0.05605   -0.04565   -0.00350    0.00812    0.01228    0.05171
   0.05787    0.21789
 kpt# 114, nband= 18, wtk=  0.00347, kpt=  0.2500  0.2500  0.1667 (reduced coord)
  -3.73288   -2.27825   -2.27824   -2.27759   -0.54208   -0.51198   -0.14728   -0.08850
  -0.08278   -0.03539   -0.02792   -0.02281   -0.00159    0.00224    0.01183    0.05745
   0.06272    0.20475
 kpt# 115, nband= 18, wtk=  0.00694, kpt=  0.3333  0.2500  0.1667 (reduced coord)
  -3.73288   -2.27825   -2.27825   -2.27759   -0.53862   -0.51076   -0.14262   -0.09765
  -0.08261   -0.05467   -0.03466   -0.02807   -0.00044    0.00693    0.01512    0.04895
   0.05897    0.22619
 kpt# 116, nband= 18, wtk=  0.00694, kpt=  0.4167  0.2500  0.1667 (reduced coord)
  -3.73288   -2.27826   -2.27825   -2.27759   -0.53239   -0.50852   -0.13763   -0.11054
  -0.08271   -0.07975   -0.04790   -0.03032   -0.00073    0.01010    0.01657    0.04100
   0.05510    0.24488
 kpt# 117, nband= 18, wtk=  0.00694, kpt=  0.5000  0.2500  0.1667 (reduced coord)
  -3.73288   -2.27828   -2.27825   -2.27758   -0.52448   -0.50608   -0.14209   -0.12230
  -0.09294   -0.08276   -0.05893   -0.04006   -0.00136    0.00973    0.01505    0.04057
   0.05456    0.23538
 kpt# 118, nband= 18, wtk=  0.00694, kpt= -0.4167  0.2500  0.1667 (reduced coord)
  -3.73288   -2.27828   -2.27826   -2.27758   -0.51649   -0.50455   -0.15708   -0.13064
  -0.08943   -0.08151   -0.06780   -0.05300   -0.00173    0.00700    0.01192    0.04641
   0.05521    0.21916
 kpt# 119, nband= 18, wtk=  0.00694, kpt= -0.3333  0.2500  0.1667 (reduced coord)
  -3.73288   -2.27829   -2.27826   -2.27758   -0.51067   -0.50459   -0.16755   -0.13508
  -0.08391   -0.07882   -0.07197   -0.06455   -0.00209    0.00547    0.00907    0.05278
   0.05533    0.20911
 kpt# 120, nband= 18, wtk=  0.00694, kpt= -0.2500  0.2500  0.1667 (reduced coord)
  -3.73288   -2.27829   -2.27826   -2.27758   -0.51130   -0.50392   -0.16710   -0.13518
  -0.08392   -0.08142   -0.07171   -0.06408   -0.00187    0.00540    0.00912    0.05294
   0.05787    0.20816
 kpt# 121, nband= 18, wtk=  0.00694, kpt= -0.1667  0.2500  0.1667 (reduced coord)
  -3.73288   -2.27828   -2.27826   -2.27758   -0.51740   -0.50351   -0.15565   -0.13176
  -0.09230   -0.08347   -0.06658   -0.05302   -0.00126    0.00697    0.01126    0.05065
   0.05822    0.21646
 kpt# 122, nband= 18, wtk=  0.00347, kpt=  0.3333  0.3333  0.1667 (reduced coord)
  -3.73288   -2.27826   -2.27825   -2.27759   -0.53689   -0.51030   -0.14012   -0.10250
  -0.08218   -0.06360   -0.03558   -0.02965   -0.00179    0.00831    0.01515    0.04667
   0.06006    0.23437
 kpt# 123, nband= 18, wtk=  0.00694, kpt=  0.4167  0.3333  0.1667 (reduced coord)
  -3.73288   -2.27826   -2.27825   -2.27759   -0.53227   -0.50868   -0.13667   -0.11241
  -0.08294   -0.07800   -0.04776   -0.03172   -0.00050    0.00991    0.01532    0.04504
   0.05476    0.24809
 kpt# 124, nband= 18, wtk=  0.00694, kpt=  0.5000  0.3333  0.1667 (reduced coord)
  -3.73288   -2.27827   -2.27825   -2.27758   -0.52556   -0.50646   -0.13791   -0.12218
  -0.08947   -0.08553   -0.06224   -0.03772    0.00080    0.01111    0.01381    0.04515
   0.04909    0.24925
 kpt# 125, nband= 18, wtk=  0.00694, kpt= -0.4167  0.3333  0.1667 (reduced coord)
  -3.73288   -2.27828   -2.27826   -2.27758   -0.51805   -0.50453   -0.14795   -0.12953
  -0.09485   -0.08451   -0.07310   -0.04833    0.00180    0.00867    0.01253    0.04444
   0.05067    0.23922
 kpt# 126, nband= 18, wtk=  0.00694, kpt= -0.3333  0.3333  0.1667 (reduced coord)
  -3.73288   -2.27828   -2.27826   -2.27758   -0.51146   -0.50386   -0.15920   -0.13315
  -0.09790   -0.08128   -0.07777   -0.05995    0.00208    0.00616    0.01116    0.04800
   0.05128    0.22699
 kpt# 127, nband= 18, wtk=  0.00694, kpt= -0.2500  0.3333  0.1667 (reduced coord)
  -3.73288   -2.27829   -2.27826   -2.27758   -0.50862   -0.50394   -0.16354   -0.13348
  -0.09921   -0.08478   -0.07108   -0.06942    0.00128    0.00696    0.00983    0.04773
   0.05458    0.22188
 kpt# 128, nband= 18, wtk=  0.00694, kpt= -0.1667  0.3333  0.1667 (reduced coord)
  -3.73288   -2.27828   -2.27826   -2.27758   -0.51223   -0.50303   -0.15831   -0.13193
  -0.09888   -0.08459   -0.07772   -0.06085    0.00232    0.00606    0.01143    0.04487
   0.05756    0.22604
 kpt# 129, nband= 18, wtk=  0.00347, kpt=  0.4167  0.4167  0.1667 (reduced coord)
  -3.73288   -2.27827   -2.27825   -2.27758   -0.52941   -0.50781   -0.13670   -0.12097
  -0.08338   -0.08120   -0.04765   -0.03584   -0.00295    0.00971    0.01433    0.04437
   0.05897    0.23267
 kpt# 130, nband= 18, wtk=  0.00694, kpt=  0.5000  0.4167  0.1667 (reduced coord)
  -3.73288   -2.27828   -2.27825   -2.27758   -0.52434   -0.50623   -0.14138   -0.12758
  -0.08642   -0.08311   -0.05909   -0.04095   -0.00118    0.00960    0.01299    0.04693
   0.05458    0.22733
 kpt# 131, nband= 18, wtk=  0.00694, kpt= -0.4167  0.4167  0.1667 (reduced coord)
  -3.73288   -2.27828   -2.27826   -2.27758   -0.51805   -0.50453   -0.14831   -0.13143
  -0.09323   -0.08329   -0.07320   -0.04810    0.00191    0.00880    0.01158    0.04714
   0.05059    0.23251
 kpt# 132, nband= 18, wtk=  0.00694, kpt= -0.3333  0.4167  0.1667 (reduced coord)
  -3.73288   -2.27828   -2.27827   -2.27758   -0.51186   -0.50348   -0.15310   -0.13365
  -0.10633   -0.08355   -0.07765   -0.05761    0.00376    0.00631    0.01207    0.04508
   0.05098    0.23683
 kpt# 133, nband= 18, wtk=  0.00694, kpt= -0.2500  0.4167  0.1667 (reduced coord)
  -3.73288   -2.27828   -2.27827   -2.27758   -0.50735   -0.50367   -0.15540   -0.13232
  -0.11628   -0.08886   -0.07306   -0.06683    0.00216    0.00847    0.01137    0.04581
   0.05007    0.23481
 kpt# 134, nband= 18, wtk=  0.00694, kpt= -0.1667  0.4167  0.1667 (reduced coord)
  -3.73288   -2.27828   -2.27827   -2.27758   -0.50775   -0.50326   -0.15480   -0.12964
  -0.11849   -0.08845   -0.07518   -0.06793    0.00229    0.00832    0.01177    0.04296
   0.05313    0.23557
 kpt# 135, nband= 18, wtk=  0.00347, kpt=  0.5000  0.5000  0.1667 (reduced coord)
  -3.73288   -2.27828   -2.27825   -2.27758   -0.52109   -0.50549   -0.15096   -0.13166
  -0.08469   -0.07996   -0.05758   -0.04671   -0.00432    0.00795    0.01232    0.04898
   0.05955    0.20762
 kpt# 136, nband= 18, wtk=  0.00694, kpt= -0.4167  0.5000  0.1667 (reduced coord)
  -3.73288   -2.27828   -2.27826   -2.27758   -0.51650   -0.50451   -0.15857   -0.13419
  -0.08377   -0.08053   -0.06804   -0.05214   -0.00192    0.00688    0.01095    0.05184
   0.05599    0.20624
 kpt# 137, nband= 18, wtk=  0.00694, kpt= -0.3333  0.5000  0.1667 (reduced coord)
  -3.73288   -2.27828   -2.27826   -2.27758   -0.51158   -0.50371   -0.16040   -0.13449
  -0.09716   -0.08164   -0.07544   -0.05856    0.00193    0.00611    0.01078    0.04897
   0.05317    0.21787
 kpt# 138, nband= 18, wtk=  0.00694, kpt= -0.2500  0.5000  0.1667 (reduced coord)
  -3.73288   -2.27828   -2.27827   -2.27758   -0.50742   -0.50360   -0.15590   -0.13233
  -0.11641   -0.08883   -0.07256   -0.06620    0.00210    0.00844    0.01131    0.04612
   0.05034    0.23193
 kpt# 139, nband= 18, wtk=  0.00347, kpt= -0.1667  0.5000  0.1667 (reduced coord)
  -3.73288   -2.27828   -2.27828   -2.27758   -0.50472   -0.50472   -0.14956   -0.13027
  -0.12761   -0.09180   -0.07185   -0.07160    0.00179    0.01074    0.01092    0.04542
   0.04810    0.23936
 kpt# 140, nband= 18, wtk=  0.00347, kpt= -0.4167 -0.4167  0.1667 (reduced coord)
  -3.73288   -2.27829   -2.27826   -2.27758   -0.51386   -0.50446   -0.16705   -0.13696
  -0.07883   -0.07777   -0.06416   -0.05755   -0.00542    0.00574    0.00969    0.05491
   0.06030    0.19261
 kpt# 141, nband= 18, wtk=  0.00694, kpt= -0.3333 -0.4167  0.1667 (reduced coord)
  -3.73288   -2.27829   -2.27826   -2.27758   -0.51094   -0.50428   -0.16928   -0.13729
  -0.08190   -0.07750   -0.07103   -0.06219   -0.00256    0.00541    0.00893    0.05610
   0.05667    0.19764
 kpt# 142, nband= 18, wtk=  0.00694, kpt= -0.2500 -0.4167  0.1667 (reduced coord)
  -3.73288   -2.27829   -2.27826   -2.27758   -0.50875   -0.50380   -0.16442   -0.13427
  -0.09900   -0.08476   -0.06994   -0.06786    0.00109    0.00689    0.00973    0.04843
   0.05547    0.21630
 kpt# 143, nband= 18, wtk=  0.00347, kpt= -0.3333 -0.3333  0.1667 (reduced coord)
  -3.73288   -2.27829   -2.27826   -2.27758   -0.51072   -0.50445   -0.17225   -0.13852
  -0.07880   -0.07445   -0.06587   -0.06491   -0.00557    0.00479    0.00832    0.05815
   0.06026    0.19079
 kpt# 144, nband= 18, wtk=  0.00694, kpt= -0.2500 -0.3333  0.1667 (reduced coord)
  -3.73288   -2.27829   -2.27826   -2.27758   -0.51138   -0.50382   -0.16808   -0.13641
  -0.08218   -0.08084   -0.07134   -0.06306   -0.00212    0.00538    0.00904    0.05418
   0.05898    0.20221
 kpt# 145, nband= 18, wtk=  0.00347, kpt= -0.2500 -0.2500  0.1667 (reduced coord)
  -3.73288   -2.27829   -2.27826   -2.27758   -0.51459   -0.50367   -0.16476   -0.13548
  -0.08567   -0.07988   -0.06267   -0.05855   -0.00467    0.00571    0.00971    0.05691
   0.05927    0.20027
 kpt# 146, nband= 18, wtk=  0.00116, kpt=  0.2500  0.2500  0.2500 (reduced coord)
  -3.73288   -2.27824   -2.27824   -2.27759   -0.54362   -0.51300   -0.14780   -0.08286
  -0.08286   -0.03639   -0.01430   -0.01430   -0.00444   -0.00444    0.00787    0.06445
   0.06445    0.19761
 kpt# 147, nband= 18, wtk=  0.00347, kpt=  0.3333  0.2500  0.2500 (reduced coord)
  -3.73288   -2.27825   -2.27824   -2.27759   -0.54174   -0.51245   -0.14453   -0.08906
  -0.08251   -0.03651   -0.03147   -0.02349   -0.00179    0.00230    0.01257    0.05659
   0.06312    0.21285
 kpt# 148, nband= 18, wtk=  0.00347, kpt=  0.4167  0.2500  0.2500 (reduced coord)
  -3.73288   -2.27826   -2.27825   -2.27759   -0.53672   -0.51053   -0.13897   -0.10260
  -0.08178   -0.06325   -0.03630   -0.03111   -0.00207    0.00838    0.01684    0.04241
   0.06018    0.23708
 kpt# 149, nband= 18, wtk=  0.00347, kpt=  0.5000  0.2500  0.2500 (reduced coord)
  -3.73288   -2.27827   -2.27825   -2.27758   -0.52935   -0.50790   -0.13761   -0.11680
  -0.08679   -0.08082   -0.04812   -0.03505   -0.00319    0.00991    0.01695    0.03693
   0.05840    0.23570
 kpt# 150, nband= 18, wtk=  0.00347, kpt= -0.4167  0.2500  0.2500 (reduced coord)
  -3.73288   -2.27828   -2.27825   -2.27758   -0.52103   -0.50559   -0.15072   -0.12728
  -0.09036   -0.07984   -0.05755   -0.04654   -0.00427    0.00812    0.01382    0.04232
   0.05848    0.21727
 kpt# 151, nband= 18, wtk=  0.00347, kpt= -0.3333  0.2500  0.2500 (reduced coord)
  -3.73288   -2.27829   -2.27826   -2.27758   -0.51366   -0.50470   -0.16574   -0.13455
  -0.08229   -0.07913   -0.06358   -0.05896   -0.00507    0.00579    0.00997    0.05053
   0.05925    0.20242
 kpt# 152, nband= 18, wtk=  0.00347, kpt= -0.2500  0.2500  0.2500 (reduced coord)
  -3.73288   -2.27829   -2.27826   -2.27758   -0.51055   -0.50465   -0.17131   -0.13731
  -0.07914   -0.07693   -0.06631   -0.06533   -0.00528    0.00479    0.00833    0.05608
   0.05963    0.19654
 kpt# 153, nband= 18, wtk=  0.00347, kpt=  0.3333  0.3333  0.2500 (reduced coord)
  -3.73288   -2.27825   -2.27824   -2.27759   -0.54158   -0.51267   -0.14312   -0.08913
  -0.08265   -0.03933   -0.03157   -0.02309   -0.00167    0.00214    0.01252    0.05742
   0.06300    0.21639
 kpt# 154, nband= 18, wtk=  0.00694, kpt=  0.4167  0.3333  0.2500 (reduced coord)
  -3.73288   -2.27825   -2.27825   -2.27759   -0.53815   -0.51140   -0.13890   -0.09896
  -0.08247   -0.05429   -0.03495   -0.03361   -0.00048    0.00675    0.01592    0.04843
   0.05942    0.23605
 kpt# 155, nband= 18, wtk=  0.00694, kpt=  0.5000  0.3333  0.2500 (reduced coord)
  -3.73288   -2.27826   -2.27825   -2.27759   -0.53198   -0.50905   -0.13534   -0.11218
  -0.08255   -0.07806   -0.04819   -0.03332   -0.00077    0.00984    0.01704    0.04037
   0.05552    0.24698
 kpt# 156, nband= 18, wtk=  0.00694, kpt= -0.4167  0.3333  0.2500 (reduced coord)
  -3.73288   -2.27828   -2.27825   -2.27758   -0.52417   -0.50645   -0.14214   -0.12393
  -0.08943   -0.08258   -0.05927   -0.04085   -0.00145    0.00959    0.01479    0.04078
   0.05480    0.23213
 kpt# 157, nband= 18, wtk=  0.00694, kpt= -0.3333  0.3333  0.2500 (reduced coord)
  -3.73288   -2.27828   -2.27826   -2.27758   -0.51634   -0.50471   -0.15794   -0.13203
  -0.08644   -0.08091   -0.06810   -0.05257   -0.00189    0.00695    0.01160    0.04758
   0.05552    0.21361
 kpt# 158, nband= 18, wtk=  0.00694, kpt= -0.2500  0.3333  0.2500 (reduced coord)
  -3.73288   -2.27829   -2.27826   -2.27758   -0.51077   -0.50447   -0.16852   -0.13628
  -0.08267   -0.07798   -0.07158   -0.06331   -0.00235    0.00544    0.00899    0.05437
   0.05601    0.20278
 kpt# 159, nband= 18, wtk=  0.00347, kpt=  0.4167  0.4167  0.2500 (reduced coord)
  -3.73288   -2.27826   -2.27825   -2.27759   -0.53645   -0.51089   -0.13674   -0.10401
  -0.08200   -0.06265   -0.03593   -0.03441   -0.00192    0.00821    0.01603    0.04557
   0.06041    0.24361
 kpt# 160, nband= 18, wtk=  0.00694, kpt=  0.5000  0.4167  0.2500 (reduced coord)
  -3.73288   -2.27826   -2.27825   -2.27759   -0.53189   -0.50916   -0.13444   -0.11383
  -0.08271   -0.07651   -0.04815   -0.03449   -0.00060    0.00969    0.01609    0.04323
   0.05537    0.24971
 kpt# 161, nband= 18, wtk=  0.00694, kpt= -0.4167  0.4167  0.2500 (reduced coord)
  -3.73288   -2.27827   -2.27825   -2.27758   -0.52527   -0.50681   -0.13745   -0.12337
  -0.08767   -0.08464   -0.06270   -0.03859    0.00081    0.01081    0.01398    0.04456
   0.04909    0.24855
 kpt# 162, nband= 18, wtk=  0.00694, kpt= -0.3333  0.4167  0.2500 (reduced coord)
  -3.73288   -2.27828   -2.27826   -2.27758   -0.51788   -0.50472   -0.14841   -0.13069
  -0.09355   -0.08286   -0.07359   -0.04810    0.00182    0.00873    0.01203    0.04584
   0.04982    0.23577
 kpt# 163, nband= 18, wtk=  0.00694, kpt= -0.2500  0.4167  0.2500 (reduced coord)
  -3.73288   -2.27828   -2.27826   -2.27758   -0.51147   -0.50384   -0.15997   -0.13402
  -0.09730   -0.08146   -0.07633   -0.05903    0.00197    0.00614    0.01092    0.04887
   0.05183    0.22163
 kpt# 164, nband= 18, wtk=  0.00347, kpt=  0.5000  0.5000  0.2500 (reduced coord)
  -3.73288   -2.27827   -2.27825   -2.27758   -0.52909   -0.50822   -0.13572   -0.12123
  -0.08215   -0.08097   -0.04802   -0.03755   -0.00314    0.00968    0.01511    0.04185
   0.05917    0.23239
 kpt# 165, nband= 18, wtk=  0.00694, kpt= -0.4167  0.5000  0.2500 (reduced coord)
  -3.73288   -2.27828   -2.27825   -2.27758   -0.52409   -0.50654   -0.14168   -0.12695
  -0.08558   -0.08278   -0.05942   -0.04151   -0.00134    0.00950    0.01358    0.04438
   0.05490    0.22759
 kpt# 166, nband= 18, wtk=  0.00694, kpt= -0.3333  0.5000  0.2500 (reduced coord)
  -3.73288   -2.27828   -2.27826   -2.27758   -0.51788   -0.50472   -0.14853   -0.13137
  -0.09305   -0.08228   -0.07368   -0.04803    0.00186    0.00878    0.01168    0.04712
   0.04950    0.23331
 kpt# 167, nband= 18, wtk=  0.00347, kpt= -0.2500  0.5000  0.2500 (reduced coord)
  -3.73288   -2.27828   -2.27827   -2.27758   -0.51180   -0.50354   -0.15327   -0.13399
  -0.10602   -0.08349   -0.07738   -0.05733    0.00374    0.00632    0.01198    0.04553
   0.05054    0.23650
 kpt# 168, nband= 18, wtk=  0.00347, kpt= -0.4167 -0.4167  0.2500 (reduced coord)
  -3.73288   -2.27828   -2.27825   -2.27758   -0.52089   -0.50573   -0.15128   -0.13051
  -0.08478   -0.07976   -0.05782   -0.04691   -0.00445    0.00799    0.01283    0.04612
   0.05941    0.20929
 kpt# 169, nband= 18, wtk=  0.00694, kpt= -0.3333 -0.4167  0.2500 (reduced coord)
  -3.73288   -2.27828   -2.27826   -2.27758   -0.51634   -0.50469   -0.15848   -0.13330
  -0.08450   -0.08040   -0.06821   -0.05227   -0.00196    0.00691    0.01125    0.04955
   0.05582    0.20893
 kpt# 170, nband= 18, wtk=  0.00347, kpt= -0.3333 -0.3333  0.2500 (reduced coord)
  -3.73288   -2.27829   -2.27826   -2.27758   -0.51369   -0.50465   -0.16658   -0.13589
  -0.07944   -0.07889   -0.06399   -0.05812   -0.00530    0.00576    0.00982    0.05251
   0.05985    0.19668
 kpt# 171, nband= 18, wtk=  0.00116, kpt=  0.3333  0.3333  0.3333 (reduced coord)
  -3.73288   -2.27824   -2.27824   -2.27759   -0.54313   -0.51369   -0.14339   -0.08276
  -0.08276   -0.04490   -0.01463   -0.01463   -0.00444   -0.00444    0.00818    0.06466
   0.06466    0.20995
 kpt# 172, nband= 18, wtk=  0.00347, kpt=  0.4167  0.3333  0.3333 (reduced coord)
  -3.73288   -2.27825   -2.27824   -2.27759   -0.54128   -0.51309   -0.14042   -0.08979
  -0.08242   -0.04226   -0.03262   -0.02368   -0.00183    0.00220    0.01302    0.05676
   0.06335    0.22422
 kpt# 173, nband= 18, wtk=  0.00347, kpt=  0.5000  0.3333  0.3333 (reduced coord)
  -3.73288   -2.27826   -2.27825   -2.27759   -0.53632   -0.51106   -0.13582   -0.10406
  -0.08171   -0.06247   -0.03646   -0.03549   -0.00212    0.00827    0.01722    0.04259
   0.06050    0.24314
 kpt# 174, nband= 18, wtk=  0.00347, kpt= -0.4167  0.3333  0.3333 (reduced coord)
  -3.73288   -2.27827   -2.27825   -2.27759   -0.52905   -0.50827   -0.13647   -0.11858
  -0.08425   -0.08074   -0.04830   -0.03697   -0.00328    0.00979    0.01667    0.03757
   0.05884    0.23415
 kpt# 175, nband= 18, wtk=  0.00347, kpt= -0.3333  0.3333  0.3333 (reduced coord)
  -3.73288   -2.27828   -2.27825   -2.27758   -0.52086   -0.50577   -0.15120   -0.12894
  -0.08687   -0.07972   -0.05781   -0.04679   -0.00443    0.00805    0.01338    0.04368
   0.05902    0.21274
 kpt# 176, nband= 18, wtk=  0.00347, kpt=  0.4167  0.4167  0.3333 (reduced coord)
  -3.73288   -2.27825   -2.27824   -2.27759   -0.54116   -0.51326   -0.13924   -0.08994
  -0.08252   -0.04419   -0.03279   -0.02339   -0.00174    0.00208    0.01297    0.05734
   0.06326    0.22761
 kpt# 177, nband= 18, wtk=  0.00694, kpt=  0.5000  0.4167  0.3333 (reduced coord)
  -3.73288   -2.27825   -2.27825   -2.27759   -0.53779   -0.51188   -0.13580   -0.10026
  -0.08236   -0.05355   -0.03815   -0.03507   -0.00051    0.00662    0.01641    0.04815
   0.05973    0.24453
 kpt# 178, nband= 18, wtk=  0.00694, kpt= -0.4167  0.4167  0.3333 (reduced coord)
  -3.73288   -2.27826   -2.27825   -2.27759   -0.53172   -0.50938   -0.13363   -0.11372
  -0.08250   -0.07650   -0.04839   -0.03550   -0.00075    0.00966    0.01707    0.04064
   0.05575    0.24854
 kpt# 179, nband= 18, wtk=  0.00694, kpt= -0.3333  0.4167  0.3333 (reduced coord)
  -3.73288   -2.27828   -2.27825   -2.27758   -0.52403   -0.50662   -0.14198   -0.12561
  -0.08671   -0.08257   -0.05947   -0.04145   -0.00144    0.00950    0.01424    0.04215
   0.05496    0.22929
 kpt# 180, nband= 18, wtk=  0.00347, kpt=  0.5000  0.5000  0.3333 (reduced coord)
  -3.73288   -2.27826   -2.27825   -2.27759   -0.53616   -0.51127   -0.13433   -0.10513
  -0.08183   -0.06183   -0.03762   -0.03625   -0.00203    0.00816    0.01672    0.04440
   0.06063    0.24820
 kpt# 181, nband= 18, wtk=  0.00694, kpt= -0.4167  0.5000  0.3333 (reduced coord)
  -3.73288   -2.27826   -2.27825   -2.27759   -0.53168   -0.50943   -0.13323   -0.11440
  -0.08255   -0.07586   -0.04839   -0.03596   -0.00069    0.00961    0.01671    0.04167
   0.05571    0.24954
 kpt# 182, nband= 18, wtk=  0.00347, kpt= -0.3333  0.5000  0.3333 (reduced coord)
  -3.73288   -2.27827   -2.27825   -2.27758   -0.52516   -0.50694   -0.13726   -0.12382
  -0.08718   -0.08411   -0.06290   -0.03895    0.00081    0.01070    0.01404    0.04426
   0.04917    0.24830
 kpt# 183, nband= 18, wtk=  0.00347, kpt= -0.4167 -0.4167  0.3333 (reduced coord)
  -3.73288   -2.27827   -2.27825   -2.27759   -0.52895   -0.50839   -0.13569   -0.12030
  -0.08245   -0.08080   -0.04827   -0.03798   -0.00326    0.00971    0.01596    0.03940
   0.05912    0.23294
 kpt# 184, nband= 18, wtk=  0.00116, kpt=  0.4167  0.4167  0.4167 (reduced coord)
  -3.73288   -2.27824   -2.27824   -2.27759   -0.54275   -0.51422   -0.13976   -0.08268
  -0.08268   -0.05130   -0.01487   -0.01487   -0.00443   -0.00443    0.00834    0.06482
   0.06482    0.22056
 kpt# 185, nband= 18, wtk=  0.00347, kpt=  0.5000  0.4167  0.4167 (reduced coord)
  -3.73288   -2.27825   -2.27824   -2.27759   -0.54098   -0.51351   -0.13750   -0.09045
  -0.08239   -0.04621   -0.03306   -0.02373   -0.00183    0.00212    0.01322    0.05699
   0.06346    0.23293
 kpt# 186, nband= 18, wtk=  0.00347, kpt= -0.4167  0.4167  0.4167 (reduced coord)
  -3.73288   -2.27826   -2.27825   -2.27759   -0.53611   -0.51134   -0.13397   -0.10515
  -0.08172   -0.06178   -0.03802   -0.03644   -0.00211    0.00819    0.01714    0.04334
   0.06066    0.24720
 kpt# 187, nband= 18, wtk=  0.00347, kpt=  0.5000  0.5000  0.4167 (reduced coord)
  -3.73288   -2.27825   -2.27824   -2.27759   -0.54093   -0.51357   -0.13703   -0.09054
  -0.08243   -0.04689   -0.03315   -0.02363   -0.00179    0.00208    0.01320    0.05720
   0.06343    0.23472
 kpt# 188, nband= 18, wtk=  0.00347, kpt= -0.4167  0.5000  0.4167 (reduced coord)
  -3.73288   -2.27825   -2.27825   -2.27759   -0.53766   -0.51206   -0.13456   -0.10085
  -0.08233   -0.05309   -0.03995   -0.03515   -0.00052    0.00658    0.01656    0.04806
   0.05984    0.24816
 kpt# 189, nband= 18, wtk=  0.00058, kpt=  0.5000  0.5000  0.5000 (reduced coord)
  -3.73288   -2.27824   -2.27824   -2.27759   -0.54261   -0.51441   -0.13832   -0.08265
  -0.08265   -0.05371   -0.01496   -0.01496   -0.00443   -0.00443    0.00841    0.06488
   0.06488    0.22554
