 Eigenvalues (hartree) for nkpt= 189  k points:
 kpt#   1, nband= 18, wtk=  0.00058, kpt=  0.0000  0.0000  0.0000 (reduced coord)
  -3.73282   -2.27812   -2.27812   -2.27764   -0.54366   -0.51156   -0.15520   -0.08173
  -0.08173   -0.01936   -0.01316   -0.01316   -0.00417   -0.00417    0.00627    0.06334
   0.06334    0.17483
 kpt#   2, nband= 18, wtk=  0.00347, kpt=  0.0833  0.0000  0.0000 (reduced coord)
  -3.73282   -2.27812   -2.27812   -2.27764   -0.54193   -0.51083   -0.15286   -0.08674
  -0.08153   -0.03219   -0.02214   -0.01812   -0.00137    0.00270    0.00997    0.05647
   0.06176    0.18791
 kpt#   3, nband= 18, wtk=  0.00347, kpt=  0.1667  0.0000  0.0000 (reduced coord)
  -3.73282   -2.27813   -2.27812   -2.27764   -0.53700   -0.50885   -0.14654   -0.09884
  -0.08102   -0.06359   -0.03467   -0.01986   -0.00151    0.00886    0.01358    0.04547
   0.05859    0.21759
 kpt#   4, nband= 18, wtk=  0.00347, kpt=  0.2500  0.0000  0.0000 (reduced coord)
  -3.73282   -2.27814   -2.27813   -2.27764   -0.52967   -0.50629   -0.14013   -0.11392
  -0.09086   -0.08035   -0.04616   -0.03090   -0.00248    0.01034    0.01473    0.04262
   0.05666    0.23737
 kpt#   5, nband= 18, wtk=  0.00347, kpt=  0.3333  0.0000  0.0000 (reduced coord)
  -3.73282   -2.27816   -2.27813   -2.27763   -0.52128   -0.50419   -0.14739   -0.12475
  -0.09909   -0.07974   -0.05522   -0.04659   -0.00356    0.00846    0.01337    0.04605
   0.05665    0.22397
 kpt#   6, nband= 18, wtk=  0.00347, kpt=  0.4167  0.0000  0.0000 (reduced coord)
  -3.73282   -2.27816   -2.27813   -2.27763   -0.51367   -0.50367   -0.16215   -0.13133
  -0.09032   -0.07934   -0.06097   -0.06091   -0.00443    0.00607    0.01035    0.05008
   0.05732    0.21305
 kpt#   7, nband= 18, wtk=  0.00174, kpt=  0.5000  0.0000  0.0000 (reduced coord)
  -3.73282   -2.27817   -2.27813   -2.27763   -0.50980   -0.50447   -0.16813   -0.13398
  -0.08194   -0.07920   -0.06958   -0.06294   -0.00479    0.00507    0.00867    0.05172
   0.05764    0.20941
 kpt#   8, nband= 18, wtk=  0.00347, kpt=  0.0833  0.0833  0.0000 (reduced coord)
  -3.73282   -2.27812   -2.27812   -2.27764   -0.54189   -0.51089   -0.15256   -0.08670
  -0.08157   -0.03254   -0.02203   -0.01866   -0.00133    0.00266    0.01003    0.05673
   0.06172    0.18860
 kpt#   9, nband= 18, wtk=  0.00694, kpt=  0.1667  0.0833  0.0000 (reduced coord)
  -3.73282   -2.27813   -2.27812   -2.27764   -0.53852   -0.50958   -0.14798   -0.09489
  -0.08159   -0.05402   -0.03362   -0.01932   -0.00024    0.00751    0.01293    0.04988
   0.05746    0.21040
 kpt#  10, nband= 18, wtk=  0.00694, kpt=  0.2500  0.0833  0.0000 (reduced coord)
  -3.73282   -2.27814   -2.27813   -2.27764   -0.53236   -0.50732   -0.14117   -0.10732
  -0.08259   -0.08063   -0.04657   -0.02604   -0.00042    0.01087    0.01468    0.04406
   0.05361    0.23848
 kpt#  11, nband= 18, wtk=  0.00694, kpt=  0.3333  0.0833  0.0000 (reduced coord)
  -3.73282   -2.27815   -2.27813   -2.27764   -0.52446   -0.50495   -0.14079   -0.11975
  -0.09819   -0.08229   -0.05734   -0.03954   -0.00096    0.01016    0.01451    0.04283
   0.05400    0.23855
 kpt#  12, nband= 18, wtk=  0.00694, kpt=  0.4167  0.0833  0.0000 (reduced coord)
  -3.73282   -2.27816   -2.27813   -2.27763   -0.51642   -0.50358   -0.15422   -0.12794
  -0.09501   -0.08184   -0.06611   -0.05406   -0.00132    0.00730    0.01226    0.04618
   0.05489    0.22538
 kpt#  13, nband= 18, wtk=  0.00694, kpt=  0.5000  0.0833  0.0000 (reduced coord)
  -3.73282   -2.27816   -2.27813   -2.27763   -0.51035   -0.50394   -0.16482   -0.13257
  -0.08628   -0.08004   -0.07149   -0.06579   -0.00167    0.00577    0.00949    0.05064
   0.05418    0.21761
 kpt#  14, nband= 18, wtk=  0.00694, kpt= -0.4167  0.0833  0.0000 (reduced coord)
  -3.73282   -2.27816   -2.27813   -2.27763   -0.51052   -0.50375   -0.16469   -0.13257
  -0.08656   -0.08055   -0.07146   -0.06557   -0.00161    0.00575    0.00950    0.05070
   0.05482    0.21716
 kpt#  15, nband= 18, wtk=  0.00694, kpt= -0.3333  0.0833  0.0000 (reduced coord)
  -3.73282   -2.27816   -2.27813   -2.27763   -0.51666   -0.50330   -0.15381   -0.12820
  -0.09592   -0.08226   -0.06582   -0.05406   -0.00120    0.00729    0.01206    0.04724
   0.05578    0.22432
 kpt#  16, nband= 18, wtk=  0.00694, kpt= -0.2500  0.0833  0.0000 (reduced coord)
  -3.73282   -2.27815   -2.27813   -2.27764   -0.52469   -0.50467   -0.14057   -0.12045
  -0.09868   -0.08253   -0.05706   -0.03929   -0.00082    0.01025    0.01386    0.04482
   0.05440    0.23804
 kpt#  17, nband= 18, wtk=  0.00694, kpt= -0.1667  0.0833  0.0000 (reduced coord)
  -3.73282   -2.27814   -2.27813   -2.27764   -0.53254   -0.50708   -0.14203   -0.10711
  -0.08293   -0.08066   -0.04636   -0.02506   -0.00031    0.01112    0.01385    0.04596
   0.05323    0.23654
 kpt#  18, nband= 18, wtk=  0.00347, kpt= -0.0833  0.0833  0.0000 (reduced coord)
  -3.73282   -2.27813   -2.27812   -2.27764   -0.53864   -0.50941   -0.14878   -0.09473
  -0.08163   -0.05394   -0.03355   -0.01784   -0.00022    0.00761    0.01250    0.05017
   0.05730    0.20824
 kpt#  19, nband= 18, wtk=  0.00347, kpt=  0.1667  0.1667  0.0000 (reduced coord)
  -3.73282   -2.27813   -2.27812   -2.27764   -0.53686   -0.50904   -0.14561   -0.09911
  -0.08114   -0.06389   -0.03446   -0.02148   -0.00144    0.00875    0.01330    0.04735
   0.05872    0.21839
 kpt#  20, nband= 18, wtk=  0.00694, kpt=  0.2500  0.1667  0.0000 (reduced coord)
  -3.73282   -2.27814   -2.27813   -2.27764   -0.53227   -0.50743   -0.14070   -0.10826
  -0.08255   -0.08002   -0.04641   -0.02684   -0.00025    0.01077    0.01381    0.04747
   0.05294    0.23843
 kpt#  21, nband= 18, wtk=  0.00694, kpt=  0.3333  0.1667  0.0000 (reduced coord)
  -3.73282   -2.27815   -2.27813   -2.27764   -0.52555   -0.50530   -0.13823   -0.11784
  -0.09471   -0.08546   -0.06066   -0.03662    0.00096    0.01189    0.01350    0.04426
   0.05094    0.24993
 kpt#  22, nband= 18, wtk=  0.00694, kpt=  0.4167  0.1667  0.0000 (reduced coord)
  -3.73282   -2.27816   -2.27813   -2.27763   -0.51798   -0.50353   -0.14563   -0.12550
  -0.09862   -0.08738   -0.07147   -0.04951    0.00195    0.00880    0.01349    0.04155
   0.05318    0.24336
 kpt#  23, nband= 18, wtk=  0.00694, kpt=  0.5000  0.1667  0.0000 (reduced coord)
  -3.73282   -2.27816   -2.27814   -2.27763   -0.51126   -0.50306   -0.15638   -0.13006
  -0.09890   -0.08185   -0.07966   -0.06202    0.00242    0.00645    0.01181    0.04458
   0.05226    0.23484
 kpt#  24, nband= 18, wtk=  0.00694, kpt= -0.4167  0.1667  0.0000 (reduced coord)
  -3.73282   -2.27816   -2.27814   -2.27763   -0.50808   -0.50353   -0.16077   -0.13112
  -0.09903   -0.08399   -0.07338   -0.07194    0.00169    0.00733    0.01016    0.04671
   0.05170    0.23093
 kpt#  25, nband= 18, wtk=  0.00694, kpt= -0.3333  0.1667  0.0000 (reduced coord)
  -3.73282   -2.27816   -2.27814   -2.27763   -0.51164   -0.50265   -0.15589   -0.12929
  -0.09939   -0.08448   -0.07911   -0.06221    0.00252    0.00641    0.01197    0.04309
   0.05538    0.23381
 kpt#  26, nband= 18, wtk=  0.00694, kpt= -0.2500  0.1667  0.0000 (reduced coord)
  -3.73282   -2.27816   -2.27813   -2.27763   -0.51839   -0.50306   -0.14480   -0.12443
  -0.10087   -0.08907   -0.07099   -0.04986    0.00203    0.00877    0.01361    0.04086
   0.05610    0.24266
 kpt#  27, nband= 18, wtk=  0.00347, kpt= -0.1667  0.1667  0.0000 (reduced coord)
  -3.73282   -2.27815   -2.27813   -2.27764   -0.52592   -0.50485   -0.13858   -0.11613
  -0.09768   -0.08575   -0.06031   -0.03605    0.00098    0.01221    0.01341    0.04351
   0.05272    0.25086
 kpt#  28, nband= 18, wtk=  0.00347, kpt=  0.2500  0.2500  0.0000 (reduced coord)
  -3.73282   -2.27814   -2.27813   -2.27764   -0.52943   -0.50659   -0.13914   -0.11713
  -0.08741   -0.08049   -0.04609   -0.03235   -0.00250    0.01009    0.01339    0.04722
   0.05746    0.23521
 kpt#  29, nband= 18, wtk=  0.00694, kpt=  0.3333  0.2500  0.0000 (reduced coord)
  -3.73282   -2.27815   -2.27813   -2.27764   -0.52433   -0.50510   -0.14047   -0.12523
  -0.09176   -0.08255   -0.05737   -0.03991   -0.00081    0.01014    0.01249    0.04921
   0.05403    0.23030
 kpt#  30, nband= 18, wtk=  0.00694, kpt=  0.4167  0.2500  0.0000 (reduced coord)
  -3.73282   -2.27816   -2.27813   -2.27763   -0.51798   -0.50352   -0.14625   -0.12865
  -0.09458   -0.08728   -0.07131   -0.04908    0.00208    0.00891    0.01223    0.04408
   0.05433    0.23462
 kpt#  31, nband= 18, wtk=  0.00694, kpt=  0.5000  0.2500  0.0000 (reduced coord)
  -3.73282   -2.27816   -2.27814   -2.27763   -0.51171   -0.50262   -0.15099   -0.13021
  -0.10722   -0.08419   -0.07899   -0.05952    0.00395    0.00659    0.01267    0.04188
   0.05315    0.23823
 kpt#  32, nband= 18, wtk=  0.00694, kpt= -0.4167  0.2500  0.0000 (reduced coord)
  -3.73282   -2.27816   -2.27815   -2.27763   -0.50714   -0.50291   -0.15290   -0.13001
  -0.11615   -0.08838   -0.07471   -0.06895    0.00256    0.00869    0.01175    0.04387
   0.04977    0.23861
 kpt#  33, nband= 18, wtk=  0.00694, kpt= -0.3333  0.2500  0.0000 (reduced coord)
  -3.73282   -2.27816   -2.27815   -2.27763   -0.50740   -0.50264   -0.15241   -0.12805
  -0.11756   -0.08786   -0.07772   -0.06881    0.00265    0.00856    0.01209    0.04147
   0.05242    0.23947
 kpt#  34, nband= 18, wtk=  0.00347, kpt= -0.2500  0.2500  0.0000 (reduced coord)
  -3.73282   -2.27816   -2.27814   -2.27763   -0.51211   -0.50220   -0.14956   -0.12677
  -0.10960   -0.08641   -0.08099   -0.06079    0.00401    0.00656    0.01344    0.03896
   0.05620    0.24230
 kpt#  35, nband= 18, wtk=  0.00347, kpt=  0.3333  0.3333  0.0000 (reduced coord)
  -3.73282   -2.27816   -2.27813   -2.27763   -0.52106   -0.50442   -0.14861   -0.13097
  -0.08945   -0.07960   -0.05573   -0.04633   -0.00384    0.00820    0.01195    0.05274
   0.05832    0.20969
 kpt#  36, nband= 18, wtk=  0.00694, kpt=  0.4167  0.3333  0.0000 (reduced coord)
  -3.73282   -2.27816   -2.27813   -2.27763   -0.51643   -0.50352   -0.15650   -0.13337
  -0.08518   -0.08229   -0.06622   -0.05270   -0.00154    0.00714    0.01095    0.05270
   0.05714    0.20721
 kpt#  37, nband= 18, wtk=  0.00694, kpt=  0.5000  0.3333  0.0000 (reduced coord)
  -3.73282   -2.27816   -2.27814   -2.27763   -0.51148   -0.50279   -0.15896   -0.13312
  -0.09668   -0.08216   -0.07534   -0.05953    0.00215    0.00637    0.01099    0.04688
   0.05585    0.21673
 kpt#  38, nband= 18, wtk=  0.00694, kpt= -0.4167  0.3333  0.0000 (reduced coord)
  -3.73282   -2.27816   -2.27815   -2.27763   -0.50735   -0.50267   -0.15489   -0.13018
  -0.11649   -0.08834   -0.07253   -0.06681    0.00238    0.00855    0.01149    0.04470
   0.05117    0.22875
 kpt#  39, nband= 18, wtk=  0.00347, kpt= -0.3333  0.3333  0.0000 (reduced coord)
  -3.73282   -2.27815   -2.27815   -2.27763   -0.50535   -0.50311   -0.14839   -0.12942
  -0.12629   -0.09173   -0.07248   -0.07096    0.00208    0.01070    0.01119    0.04479
   0.04778    0.23732
 kpt#  40, nband= 18, wtk=  0.00347, kpt=  0.4167  0.4167  0.0000 (reduced coord)
  -3.73282   -2.27816   -2.27813   -2.27763   -0.51378   -0.50348   -0.16556   -0.13675
  -0.07925   -0.07850   -0.06251   -0.05767   -0.00521    0.00598    0.00980    0.05794
   0.05965    0.19115
 kpt#  41, nband= 18, wtk=  0.00694, kpt=  0.5000  0.4167  0.0000 (reduced coord)
  -3.73282   -2.27816   -2.27813   -2.27763   -0.51084   -0.50335   -0.16849   -0.13724
  -0.08106   -0.07705   -0.07010   -0.06175   -0.00257    0.00566    0.00917    0.05563
   0.05877    0.19371
 kpt#  42, nband= 18, wtk=  0.00347, kpt= -0.4167  0.4167  0.0000 (reduced coord)
  -3.73282   -2.27816   -2.27814   -2.27763   -0.50853   -0.50300   -0.16423   -0.13424
  -0.09790   -0.08396   -0.06905   -0.06607    0.00103    0.00706    0.00980    0.04886
   0.05564    0.20955
 kpt#  43, nband= 18, wtk=  0.00174, kpt=  0.5000  0.5000  0.0000 (reduced coord)
  -3.73282   -2.27817   -2.27813   -2.27763   -0.51046   -0.50368   -0.17213   -0.13903
  -0.07784   -0.07175   -0.06514   -0.06377   -0.00593    0.00509    0.00862    0.05996
   0.06022    0.18443
 kpt#  44, nband= 18, wtk=  0.00116, kpt=  0.0833  0.0833  0.0833 (reduced coord)
  -3.73282   -2.27812   -2.27812   -2.27764   -0.54353   -0.51175   -0.15425   -0.08170
  -0.08170   -0.02185   -0.01325   -0.01325   -0.00417   -0.00417    0.00656    0.06340
   0.06340    0.17767
 kpt#  45, nband= 18, wtk=  0.00347, kpt=  0.1667  0.0833  0.0833 (reduced coord)
  -3.73282   -2.27812   -2.27812   -2.27764   -0.54173   -0.51112   -0.15137   -0.08690
  -0.08143   -0.03225   -0.02239   -0.02155   -0.00146    0.00269    0.01071    0.05617
   0.06193    0.19234
 kpt#  46, nband= 18, wtk=  0.00347, kpt=  0.2500  0.0833  0.0833 (reduced coord)
  -3.73282   -2.27813   -2.27812   -2.27764   -0.53674   -0.50921   -0.14486   -0.09928
  -0.08085   -0.06344   -0.03500   -0.02254   -0.00168    0.00881    0.01467    0.04386
   0.05882    0.22234
 kpt#  47, nband= 18, wtk=  0.00347, kpt=  0.3333  0.0833  0.0833 (reduced coord)
  -3.73282   -2.27814   -2.27813   -2.27764   -0.52937   -0.50668   -0.13935   -0.11379
  -0.09030   -0.08011   -0.04655   -0.03196   -0.00269    0.01030    0.01571    0.03973
   0.05687    0.23722
 kpt#  48, nband= 18, wtk=  0.00347, kpt=  0.4167  0.0833  0.0833 (reduced coord)
  -3.73282   -2.27816   -2.27813   -2.27764   -0.52097   -0.50455   -0.14810   -0.12432
  -0.09742   -0.07946   -0.05563   -0.04674   -0.00376    0.00846    0.01384    0.04351
   0.05682    0.22386
 kpt#  49, nband= 18, wtk=  0.00347, kpt=  0.5000  0.0833  0.0833 (reduced coord)
  -3.73282   -2.27816   -2.27813   -2.27763   -0.51342   -0.50395   -0.16270   -0.13155
  -0.08853   -0.07910   -0.06131   -0.06078   -0.00457    0.00608    0.01040    0.04896
   0.05748    0.21211
 kpt#  50, nband= 18, wtk=  0.00347, kpt= -0.4167  0.0833  0.0833 (reduced coord)
  -3.73282   -2.27817   -2.27813   -2.27763   -0.50985   -0.50441   -0.16842   -0.13434
  -0.08126   -0.07912   -0.06915   -0.06308   -0.00485    0.00507    0.00868    0.05222
   0.05781    0.20735
 kpt#  51, nband= 18, wtk=  0.00347, kpt= -0.3333  0.0833  0.0833 (reduced coord)
  -3.73282   -2.27816   -2.27813   -2.27763   -0.51389   -0.50342   -0.16216   -0.13196
  -0.09035   -0.07944   -0.06088   -0.06050   -0.00439    0.00605    0.01024    0.05203
   0.05749    0.21037
 kpt#  52, nband= 18, wtk=  0.00347, kpt= -0.2500  0.0833  0.0833 (reduced coord)
  -3.73282   -2.27816   -2.27813   -2.27763   -0.52146   -0.50397   -0.14707   -0.12620
  -0.09869   -0.07992   -0.05501   -0.04637   -0.00347    0.00842    0.01283    0.04893
   0.05678    0.22156
 kpt#  53, nband= 18, wtk=  0.00347, kpt= -0.1667  0.0833  0.0833 (reduced coord)
  -3.73282   -2.27814   -2.27813   -2.27764   -0.52979   -0.50613   -0.14042   -0.11459
  -0.09050   -0.08051   -0.04593   -0.03058   -0.00237    0.01031    0.01392    0.04527
   0.05671    0.23701
 kpt#  54, nband= 18, wtk=  0.00347, kpt= -0.0833  0.0833  0.0833 (reduced coord)
  -3.73282   -2.27813   -2.27812   -2.27764   -0.53705   -0.50879   -0.14681   -0.09877
  -0.08112   -0.06377   -0.03448   -0.01947   -0.00142    0.00884    0.01306    0.04678
   0.05855    0.21604
 kpt#  55, nband= 18, wtk=  0.00347, kpt=  0.1667  0.1667  0.0833 (reduced coord)
  -3.73282   -2.27812   -2.27812   -2.27764   -0.54161   -0.51128   -0.15051   -0.08682
  -0.08154   -0.03337   -0.02277   -0.02208   -0.00135    0.00258    0.01078    0.05685
   0.06184    0.19431
 kpt#  56, nband= 18, wtk=  0.00694, kpt=  0.2500  0.1667  0.0833 (reduced coord)
  -3.73282   -2.27813   -2.27812   -2.27764   -0.53819   -0.51003   -0.14570   -0.09543
  -0.08147   -0.05418   -0.03381   -0.02331   -0.00026    0.00731    0.01394    0.04919
   0.05787    0.21645
 kpt#  57, nband= 18, wtk=  0.00694, kpt=  0.3333  0.1667  0.0833 (reduced coord)
  -3.73282   -2.27814   -2.27813   -2.27764   -0.53200   -0.50779   -0.13944   -0.10806
  -0.08201   -0.08026   -0.04689   -0.02815   -0.00053    0.01053    0.01567    0.04211
   0.05405    0.24118
 kpt#  58, nband= 18, wtk=  0.00694, kpt=  0.4167  0.1667  0.0833 (reduced coord)
  -3.73282   -2.27815   -2.27813   -2.27764   -0.52411   -0.50538   -0.14108   -0.12006
  -0.09598   -0.08200   -0.05773   -0.03999   -0.00114    0.01003    0.01498    0.04109
   0.05384    0.23729
 kpt#  59, nband= 18, wtk=  0.00694, kpt=  0.5000  0.1667  0.0833 (reduced coord)
  -3.73282   -2.27816   -2.27813   -2.27763   -0.51612   -0.50390   -0.15506   -0.12856
  -0.09246   -0.08134   -0.06646   -0.05381   -0.00150    0.00729    0.01228    0.04565
   0.05450    0.22315
 kpt#  60, nband= 18, wtk=  0.00694, kpt= -0.4167  0.1667  0.0833 (reduced coord)
  -3.73282   -2.27816   -2.27813   -2.27763   -0.51024   -0.50404   -0.16547   -0.13324
  -0.08503   -0.07929   -0.07134   -0.06553   -0.00183    0.00577    0.00943    0.05115
   0.05417    0.21418
 kpt#  61, nband= 18, wtk=  0.00694, kpt= -0.3333  0.1667  0.0833 (reduced coord)
  -3.73282   -2.27816   -2.27813   -2.27763   -0.51071   -0.50354   -0.16513   -0.13327
  -0.08559   -0.08084   -0.07119   -0.06501   -0.00168    0.00572    0.00946    0.05130
   0.05598    0.21323
 kpt#  62, nband= 18, wtk=  0.00694, kpt= -0.2500  0.1667  0.0833 (reduced coord)
  -3.73282   -2.27816   -2.27813   -2.27763   -0.51680   -0.50313   -0.15395   -0.12933
  -0.09487   -0.08254   -0.06563   -0.05381   -0.00117    0.00726    0.01175    0.04860
   0.05690    0.22074
 kpt#  63, nband= 18, wtk=  0.00694, kpt= -0.1667  0.1667  0.0833 (reduced coord)
  -3.73282   -2.27815   -2.27813   -2.27764   -0.52475   -0.50460   -0.14047   -0.12190
  -0.09748   -0.08267   -0.05695   -0.03923   -0.00075    0.01030    0.01321    0.04671
   0.05476    0.23606
 kpt#  64, nband= 18, wtk=  0.00694, kpt= -0.0833  0.1667  0.0833 (reduced coord)
  -3.73282   -2.27814   -2.27813   -2.27764   -0.53251   -0.50712   -0.14187   -0.10741
  -0.08289   -0.08050   -0.04629   -0.02533   -0.00025    0.01111    0.01352    0.04727
   0.05292    0.23632
 kpt#  65, nband= 18, wtk=  0.00347, kpt=  0.2500  0.2500  0.0833 (reduced coord)
  -3.73282   -2.27813   -2.27812   -2.27764   -0.53648   -0.50956   -0.14312   -0.09994
  -0.08106   -0.06373   -0.03463   -0.02542   -0.00154    0.00862    0.01408    0.04710
   0.05905    0.22454
 kpt#  66, nband= 18, wtk=  0.00694, kpt=  0.3333  0.2500  0.0833 (reduced coord)
  -3.73282   -2.27814   -2.27813   -2.27764   -0.53188   -0.50795   -0.13868   -0.10960
  -0.08212   -0.07897   -0.04671   -0.02938   -0.00029    0.01035    0.01447    0.04642
   0.05347    0.24254
 kpt#  67, nband= 18, wtk=  0.00694, kpt=  0.4167  0.2500  0.0833 (reduced coord)
  -3.73282   -2.27815   -2.27813   -2.27764   -0.52518   -0.50576   -0.13780   -0.11947
  -0.09173   -0.08511   -0.06110   -0.03738    0.00095    0.01151    0.01369    0.04477
   0.04945    0.24897
 kpt#  68, nband= 18, wtk=  0.00694, kpt=  0.5000  0.2500  0.0833 (reduced coord)
  -3.73282   -2.27816   -2.27813   -2.27763   -0.51767   -0.50389   -0.14639   -0.12701
  -0.09610   -0.08590   -0.07191   -0.04914    0.00192    0.00883    0.01308    0.04263
   0.05149    0.24123
 kpt#  69, nband= 18, wtk=  0.00694, kpt= -0.4167  0.2500  0.0833 (reduced coord)
  -3.73282   -2.27816   -2.27814   -2.27763   -0.51108   -0.50326   -0.15722   -0.13115
  -0.09787   -0.08094   -0.07892   -0.06124    0.00230    0.00647    0.01156    0.04602
   0.05115    0.23113
 kpt#  70, nband= 18, wtk=  0.00694, kpt= -0.3333  0.2500  0.0833 (reduced coord)
  -3.73282   -2.27816   -2.27814   -2.27763   -0.50817   -0.50342   -0.16148   -0.13179
  -0.09857   -0.08416   -0.07247   -0.07085    0.00158    0.00728    0.01010    0.04673
   0.05290    0.22650
 kpt#  71, nband= 18, wtk=  0.00694, kpt= -0.2500  0.2500  0.0833 (reduced coord)
  -3.73282   -2.27816   -2.27814   -2.27763   -0.51174   -0.50254   -0.15640   -0.12993
  -0.09869   -0.08487   -0.07830   -0.06177    0.00249    0.00639    0.01181    0.04338
   0.05661    0.22988
 kpt#  72, nband= 18, wtk=  0.00694, kpt= -0.1667  0.2500  0.0833 (reduced coord)
  -3.73282   -2.27816   -2.27813   -2.27763   -0.51839   -0.50306   -0.14499   -0.12546
  -0.09947   -0.08921   -0.07091   -0.04973    0.00206    0.00880    0.01328    0.04148
   0.05649    0.24038
 kpt#  73, nband= 18, wtk=  0.00694, kpt= -0.0833  0.2500  0.0833 (reduced coord)
  -3.73282   -2.27815   -2.27813   -2.27764   -0.52582   -0.50497   -0.13850   -0.11660
  -0.09688   -0.08568   -0.06040   -0.03618    0.00097    0.01213    0.01342    0.04373
   0.05223    0.25061
 kpt#  74, nband= 18, wtk=  0.00347, kpt=  0.3333  0.3333  0.0833 (reduced coord)
  -3.73282   -2.27815   -2.27813   -2.27764   -0.52902   -0.50711   -0.13770   -0.11866
  -0.08508   -0.08030   -0.04644   -0.03436   -0.00267    0.00997    0.01369    0.04613
   0.05796    0.23355
 kpt#  75, nband= 18, wtk=  0.00694, kpt=  0.4167  0.3333  0.0833 (reduced coord)
  -3.73282   -2.27815   -2.27813   -2.27764   -0.52395   -0.50556   -0.14051   -0.12631
  -0.08847   -0.08233   -0.05786   -0.04071   -0.00093    0.00993    0.01262    0.04867
   0.05370    0.22798
 kpt#  76, nband= 18, wtk=  0.00694, kpt=  0.5000  0.3333  0.0833 (reduced coord)
  -3.73282   -2.27816   -2.27813   -2.27763   -0.51766   -0.50388   -0.14696   -0.12984
  -0.09295   -0.08506   -0.07190   -0.04876    0.00207    0.00898    0.01179    0.04553
   0.05224    0.23235
 kpt#  77, nband= 18, wtk=  0.00694, kpt= -0.4167  0.3333  0.0833 (reduced coord)
  -3.73282   -2.27816   -2.27814   -2.27763   -0.51150   -0.50284   -0.15168   -0.13166
  -0.10606   -0.08351   -0.07803   -0.05863    0.00392    0.00660    0.01231    0.04341
   0.05163    0.23632
 kpt#  78, nband= 18, wtk=  0.00694, kpt= -0.3333  0.3333  0.0833 (reduced coord)
  -3.73282   -2.27816   -2.27815   -2.27763   -0.50709   -0.50295   -0.15361   -0.13088
  -0.11545   -0.08855   -0.07368   -0.06797    0.00248    0.00869    0.01158    0.04472
   0.04950    0.23609
 kpt#  79, nband= 18, wtk=  0.00694, kpt= -0.2500  0.3333  0.0833 (reduced coord)
  -3.73282   -2.27816   -2.27815   -2.27763   -0.50746   -0.50258   -0.15296   -0.12817
  -0.11752   -0.08802   -0.07684   -0.06840    0.00260    0.00852    0.01201    0.04164
   0.05286    0.23715
 kpt#  80, nband= 18, wtk=  0.00694, kpt= -0.1667  0.3333  0.0833 (reduced coord)
  -3.73282   -2.27816   -2.27814   -2.27763   -0.51206   -0.50225   -0.14975   -0.12729
  -0.10927   -0.08605   -0.08071   -0.06066    0.00400    0.00657    0.01333    0.03934
   0.05578    0.24176
 kpt#  81, nband= 18, wtk=  0.00694, kpt= -0.0833  0.3333  0.0833 (reduced coord)
  -3.73282   -2.27816   -2.27813   -2.27763   -0.51824   -0.50323   -0.14504   -0.12447
  -0.10051   -0.08844   -0.07118   -0.04978    0.00199    0.00878    0.01369    0.04090
   0.05487    0.24379
 kpt#  82, nband= 18, wtk=  0.00347, kpt=  0.4167  0.4167  0.0833 (reduced coord)
  -3.73282   -2.27816   -2.27813   -2.27764   -0.52071   -0.50483   -0.14942   -0.13131
  -0.08620   -0.07929   -0.05622   -0.04681   -0.00409    0.00817    0.01207    0.05120
   0.05875    0.20744
 kpt#  83, nband= 18, wtk=  0.00694, kpt=  0.5000  0.4167  0.0833 (reduced coord)
  -3.73282   -2.27816   -2.27813   -2.27763   -0.51614   -0.50384   -0.15725   -0.13372
  -0.08312   -0.08134   -0.06672   -0.05255   -0.00174    0.00712    0.01094    0.05296
   0.05589    0.20513
 kpt#  84, nband= 18, wtk=  0.00694, kpt= -0.4167  0.4167  0.0833 (reduced coord)
  -3.73282   -2.27816   -2.27814   -2.27763   -0.51128   -0.50301   -0.15941   -0.13364
  -0.09628   -0.08142   -0.07497   -0.05892    0.00205    0.00639    0.01086    0.04791
   0.05434    0.21534
 kpt#  85, nband= 18, wtk=  0.00694, kpt= -0.3333  0.4167  0.0833 (reduced coord)
  -3.73282   -2.27816   -2.27815   -2.27763   -0.50725   -0.50277   -0.15505   -0.13094
  -0.11580   -0.08845   -0.07227   -0.06626    0.00234    0.00859    0.01140    0.04546
   0.05038    0.22851
 kpt#  86, nband= 18, wtk=  0.00694, kpt= -0.2500  0.4167  0.0833 (reduced coord)
  -3.73282   -2.27815   -2.27815   -2.27763   -0.50535   -0.50311   -0.14839   -0.12948
  -0.12622   -0.09176   -0.07225   -0.07116    0.00208    0.01071    0.01119    0.04483
   0.04774    0.23747
 kpt#  87, nband= 18, wtk=  0.00694, kpt= -0.1667  0.4167  0.0833 (reduced coord)
  -3.73282   -2.27816   -2.27815   -2.27763   -0.50732   -0.50273   -0.15219   -0.12834
  -0.11739   -0.08795   -0.07732   -0.06922    0.00265    0.00861    0.01205    0.04191
   0.05153    0.24057
 kpt#  88, nband= 18, wtk=  0.00694, kpt= -0.0833  0.4167  0.0833 (reduced coord)
  -3.73282   -2.27816   -2.27814   -2.27763   -0.51147   -0.50284   -0.15588   -0.12934
  -0.09951   -0.08332   -0.07958   -0.06233    0.00249    0.00644    0.01197    0.04352
   0.05379    0.23573
 kpt#  89, nband= 18, wtk=  0.00347, kpt=  0.5000  0.5000  0.0833 (reduced coord)
  -3.73282   -2.27816   -2.27813   -2.27763   -0.51354   -0.50375   -0.16604   -0.13682
  -0.07822   -0.07751   -0.06288   -0.05761   -0.00540    0.00600    0.00984    0.05668
   0.05982    0.19010
 kpt#  90, nband= 18, wtk=  0.00694, kpt= -0.4167  0.5000  0.0833 (reduced coord)
  -3.73282   -2.27816   -2.27813   -2.27763   -0.51068   -0.50351   -0.16861   -0.13719
  -0.08106   -0.07650   -0.07016   -0.06173   -0.00264    0.00567    0.00916    0.05596
   0.05764    0.19374
 kpt#  91, nband= 18, wtk=  0.00694, kpt= -0.3333  0.5000  0.0833 (reduced coord)
  -3.73282   -2.27816   -2.27814   -2.27763   -0.50850   -0.50304   -0.16399   -0.13404
  -0.09789   -0.08404   -0.06926   -0.06659    0.00108    0.00707    0.00982    0.04855
   0.05551    0.21100
 kpt#  92, nband= 18, wtk=  0.00694, kpt= -0.2500  0.5000  0.0833 (reduced coord)
  -3.73282   -2.27816   -2.27815   -2.27763   -0.50743   -0.50260   -0.15440   -0.12934
  -0.11705   -0.08830   -0.07349   -0.06751    0.00245    0.00852    0.01166    0.04355
   0.05207    0.23087
 kpt#  93, nband= 18, wtk=  0.00694, kpt= -0.1667  0.5000  0.0833 (reduced coord)
  -3.73282   -2.27816   -2.27815   -2.27763   -0.50722   -0.50283   -0.15237   -0.12906
  -0.11689   -0.08818   -0.07606   -0.06937    0.00262    0.00866    0.01192    0.04282
   0.05052    0.24023
 kpt#  94, nband= 18, wtk=  0.00347, kpt= -0.0833  0.5000  0.0833 (reduced coord)
  -3.73282   -2.27816   -2.27814   -2.27763   -0.50804   -0.50357   -0.16050   -0.13086
  -0.09923   -0.08392   -0.07360   -0.07244    0.00173    0.00736    0.01019    0.04681
   0.05117    0.23260
 kpt#  95, nband= 18, wtk=  0.00347, kpt= -0.4167 -0.4167  0.0833 (reduced coord)
  -3.73282   -2.27817   -2.27813   -2.27763   -0.51042   -0.50373   -0.17188   -0.13872
  -0.07795   -0.07246   -0.06498   -0.06411   -0.00583    0.00509    0.00862    0.05935
   0.06004    0.18586
 kpt#  96, nband= 18, wtk=  0.00694, kpt= -0.3333 -0.4167  0.0833 (reduced coord)
  -3.73282   -2.27816   -2.27813   -2.27763   -0.51093   -0.50326   -0.16791   -0.13670
  -0.08126   -0.07840   -0.07029   -0.06231   -0.00237    0.00566    0.00923    0.05476
   0.05907    0.19644
 kpt#  97, nband= 18, wtk=  0.00694, kpt= -0.2500 -0.4167  0.0833 (reduced coord)
  -3.73282   -2.27816   -2.27814   -2.27763   -0.51165   -0.50261   -0.15818   -0.13218
  -0.09720   -0.08327   -0.07619   -0.06034    0.00228    0.00636    0.01123    0.04555
   0.05688    0.22024
 kpt#  98, nband= 18, wtk=  0.00694, kpt= -0.1667 -0.4167  0.0833 (reduced coord)
  -3.73282   -2.27816   -2.27814   -2.27763   -0.51192   -0.50240   -0.15028   -0.12860
  -0.10839   -0.08516   -0.07996   -0.06024    0.00398    0.00658    0.01304    0.04041
   0.05467    0.24027
 kpt#  99, nband= 18, wtk=  0.00347, kpt= -0.3333 -0.3333  0.0833 (reduced coord)
  -3.73282   -2.27816   -2.27813   -2.27763   -0.51397   -0.50329   -0.16470   -0.13601
  -0.08223   -0.07885   -0.06198   -0.05809   -0.00495    0.00598    0.00985    0.05787
   0.05920    0.19458
 kpt# 100, nband= 18, wtk=  0.00694, kpt= -0.2500 -0.3333  0.0833 (reduced coord)
  -3.73282   -2.27816   -2.27813   -2.27763   -0.51667   -0.50326   -0.15553   -0.13236
  -0.08866   -0.08257   -0.06581   -0.05301   -0.00135    0.00718    0.01112    0.05155
   0.05793    0.21107
 kpt# 101, nband= 18, wtk=  0.00694, kpt= -0.1667 -0.3333  0.0833 (reduced coord)
  -3.73282   -2.27816   -2.27813   -2.27763   -0.51824   -0.50323   -0.14553   -0.12706
  -0.09701   -0.08869   -0.07099   -0.04944    0.00208    0.00884    0.01277    0.04263
   0.05587    0.23751
 kpt# 102, nband= 18, wtk=  0.00347, kpt= -0.2500 -0.2500  0.0833 (reduced coord)
  -3.73282   -2.27816   -2.27813   -2.27763   -0.52134   -0.50410   -0.14781   -0.12983
  -0.09317   -0.07984   -0.05530   -0.04610   -0.00363    0.00827    0.01206    0.05281
   0.05775    0.21333
 kpt# 103, nband= 18, wtk=  0.00694, kpt= -0.1667 -0.2500  0.0833 (reduced coord)
  -3.73282   -2.27815   -2.27813   -2.27764   -0.52462   -0.50475   -0.14046   -0.12363
  -0.09499   -0.08267   -0.05705   -0.03942   -0.00074    0.01027    0.01270    0.04828
   0.05465    0.23323
 kpt# 104, nband= 18, wtk=  0.00347, kpt= -0.1667 -0.1667  0.0833 (reduced coord)
  -3.73282   -2.27814   -2.27813   -2.27764   -0.52970   -0.50624   -0.14010   -0.11570
  -0.08931   -0.08056   -0.04590   -0.03105   -0.00238    0.01021    0.01346    0.04694
   0.05700    0.23642
 kpt# 105, nband= 18, wtk=  0.00116, kpt=  0.1667  0.1667  0.1667 (reduced coord)
  -3.73282   -2.27812   -2.27812   -2.27764   -0.54318   -0.51225   -0.15155   -0.08162
  -0.08162   -0.02839   -0.01351   -0.01351   -0.00417   -0.00417    0.00715    0.06357
   0.06357    0.18555
 kpt# 106, nband= 18, wtk=  0.00347, kpt=  0.2500  0.1667  0.1667 (reduced coord)
  -3.73282   -2.27812   -2.27812   -2.27764   -0.54132   -0.51169   -0.14831   -0.08722
  -0.08130   -0.03306   -0.02733   -0.02270   -0.00155    0.00262    0.01166    0.05599
   0.06220    0.20094
 kpt# 107, nband= 18, wtk=  0.00347, kpt=  0.3333  0.1667  0.1667 (reduced coord)
  -3.73282   -2.27813   -2.27812   -2.27764   -0.53631   -0.50979   -0.14202   -0.10012
  -0.08066   -0.06323   -0.03536   -0.02685   -0.00185    0.00870    0.01586    0.04255
   0.05919    0.22902
 kpt# 108, nband= 18, wtk=  0.00347, kpt=  0.4167  0.1667  0.1667 (reduced coord)
  -3.73282   -2.27814   -2.27813   -2.27764   -0.52895   -0.50720   -0.13824   -0.11436
  -0.08876   -0.07986   -0.04699   -0.03367   -0.00294    0.01021    0.01658    0.03745
   0.05728    0.23639
 kpt# 109, nband= 18, wtk=  0.00347, kpt=  0.5000  0.1667  0.1667 (reduced coord)
  -3.73282   -2.27816   -2.27813   -2.27764   -0.52062   -0.50496   -0.14899   -0.12497
  -0.09411   -0.07915   -0.05613   -0.04687   -0.00402    0.00841    0.01408    0.04196
   0.05725    0.22106
 kpt# 110, nband= 18, wtk=  0.00347, kpt= -0.4167  0.1667  0.1667 (reduced coord)
  -3.73282   -2.27816   -2.27813   -2.27763   -0.51321   -0.50416   -0.16364   -0.13247
  -0.08553   -0.07877   -0.06182   -0.06016   -0.00481    0.00608    0.01036    0.04893
   0.05793    0.20772
 kpt# 111, nband= 18, wtk=  0.00347, kpt= -0.3333  0.1667  0.1667 (reduced coord)
  -3.73282   -2.27817   -2.27813   -2.27763   -0.50998   -0.50425   -0.16919   -0.13533
  -0.07943   -0.07890   -0.06799   -0.06346   -0.00504    0.00508    0.00866    0.05361
   0.05828    0.20215
 kpt# 112, nband= 18, wtk=  0.00347, kpt= -0.2500  0.1667  0.1667 (reduced coord)
  -3.73282   -2.27816   -2.27813   -2.27763   -0.51403   -0.50326   -0.16273   -0.13324
  -0.08862   -0.07938   -0.06106   -0.05972   -0.00449    0.00602    0.01009    0.05438
   0.05795    0.20537
 kpt# 113, nband= 18, wtk=  0.00347, kpt= -0.1667  0.1667  0.1667 (reduced coord)
  -3.73282   -2.27816   -2.27813   -2.27763   -0.52148   -0.50393   -0.14724   -0.12810
  -0.09650   -0.07996   -0.05504   -0.04616   -0.00349    0.00835    0.01236    0.05140
   0.05718    0.21763
 kpt# 114, nband= 18, wtk=  0.00347, kpt=  0.2500  0.2500  0.1667 (reduced coord)
  -3.73282   -2.27812   -2.27812   -2.27764   -0.54116   -0.51191   -0.14703   -0.08718
  -0.08145   -0.03530   -0.02816   -0.02228   -0.00141    0.00247    0.01167    0.05688
   0.06208    0.20392
 kpt# 115, nband= 18, wtk=  0.00694, kpt=  0.3333  0.2500  0.1667 (reduced coord)
  -3.73282   -2.27813   -2.27812   -2.27764   -0.53772   -0.51067   -0.14230   -0.09640
  -0.08132   -0.05419   -0.03407   -0.02873   -0.00030    0.00709    0.01499    0.04847
   0.05837    0.22527
 kpt# 116, nband= 18, wtk=  0.00694, kpt=  0.4167  0.2500  0.1667 (reduced coord)
  -3.73282   -2.27814   -2.27813   -2.27764   -0.53155   -0.50838   -0.13717   -0.10937
  -0.08156   -0.07919   -0.04725   -0.03105   -0.00062    0.01021    0.01652    0.04061
   0.05453    0.24382
 kpt# 117, nband= 18, wtk=  0.00694, kpt=  0.5000  0.2500  0.1667 (reduced coord)
  -3.73282   -2.27815   -2.27813   -2.27764   -0.52372   -0.50585   -0.14131   -0.12125
  -0.09260   -0.08173   -0.05815   -0.04068   -0.00129    0.00988    0.01512    0.04014
   0.05396    0.23458
 kpt# 118, nband= 18, wtk=  0.00694, kpt= -0.4167  0.2500  0.1667 (reduced coord)
  -3.73282   -2.27816   -2.27813   -2.27763   -0.51586   -0.50419   -0.15607   -0.12978
  -0.08909   -0.08082   -0.06683   -0.05340   -0.00170    0.00725    0.01210    0.04591
   0.05457    0.21833
 kpt# 119, nband= 18, wtk=  0.00694, kpt= -0.3333  0.2500  0.1667 (reduced coord)
  -3.73282   -2.27816   -2.27813   -2.27763   -0.51023   -0.50404   -0.16645   -0.13434
  -0.08345   -0.07832   -0.07114   -0.06469   -0.00207    0.00576    0.00935    0.05226
   0.05466    0.20824
 kpt# 120, nband= 18, wtk=  0.00694, kpt= -0.2500  0.2500  0.1667 (reduced coord)
  -3.73282   -2.27816   -2.27813   -2.27763   -0.51086   -0.50337   -0.16598   -0.13442
  -0.08366   -0.08085   -0.07085   -0.06418   -0.00185    0.00569    0.00939    0.05233
   0.05736    0.20739
 kpt# 121, nband= 18, wtk=  0.00694, kpt= -0.1667  0.2500  0.1667 (reduced coord)
  -3.73282   -2.27816   -2.27813   -2.27763   -0.51680   -0.50312   -0.15460   -0.13089
  -0.09220   -0.08265   -0.06561   -0.05342   -0.00122    0.00722    0.01140    0.05009
   0.05778    0.21592
 kpt# 122, nband= 18, wtk=  0.00347, kpt=  0.3333  0.3333  0.1667 (reduced coord)
  -3.73282   -2.27813   -2.27812   -2.27764   -0.53600   -0.51020   -0.13975   -0.10127
  -0.08091   -0.06312   -0.03494   -0.03038   -0.00167    0.00848    0.01503    0.04626
   0.05945    0.23343
 kpt# 123, nband= 18, wtk=  0.00694, kpt=  0.4167  0.3333  0.1667 (reduced coord)
  -3.73282   -2.27814   -2.27813   -2.27764   -0.53142   -0.50854   -0.13621   -0.11125
  -0.08178   -0.07740   -0.04713   -0.03248   -0.00038    0.01000    0.01527    0.04469
   0.05420    0.24688
 kpt# 124, nband= 18, wtk=  0.00694, kpt=  0.5000  0.3333  0.1667 (reduced coord)
  -3.73282   -2.27815   -2.27813   -2.27764   -0.52478   -0.50624   -0.13728   -0.12108
  -0.08872   -0.08464   -0.06165   -0.03836    0.00095    0.01110    0.01391    0.04471
   0.04860    0.24800
 kpt# 125, nband= 18, wtk=  0.00694, kpt= -0.4167  0.3333  0.1667 (reduced coord)
  -3.73282   -2.27816   -2.27813   -2.27763   -0.51738   -0.50421   -0.14710   -0.12851
  -0.09387   -0.08412   -0.07247   -0.04878    0.00192    0.00888    0.01257    0.04394
   0.05016    0.23790
 kpt# 126, nband= 18, wtk=  0.00694, kpt= -0.3333  0.3333  0.1667 (reduced coord)
  -3.73282   -2.27816   -2.27814   -2.27763   -0.51097   -0.50336   -0.15817   -0.13228
  -0.09686   -0.08085   -0.07743   -0.06020    0.00217    0.00646    0.01126    0.04745
   0.05075    0.22569
 kpt# 127, nband= 18, wtk=  0.00694, kpt= -0.2500  0.3333  0.1667 (reduced coord)
  -3.73282   -2.27816   -2.27814   -2.27763   -0.50830   -0.50327   -0.16243   -0.13266
  -0.09814   -0.08427   -0.07107   -0.06950    0.00141    0.00720    0.01000    0.04712
   0.05414    0.22065
 kpt# 128, nband= 18, wtk=  0.00694, kpt= -0.1667  0.3333  0.1667 (reduced coord)
  -3.73282   -2.27816   -2.27814   -2.27763   -0.51174   -0.50252   -0.15724   -0.13102
  -0.09786   -0.08437   -0.07726   -0.06113    0.00240    0.00637    0.01153    0.04428
   0.05717    0.22499
 kpt# 129, nband= 18, wtk=  0.00347, kpt=  0.4167  0.4167  0.1667 (reduced coord)
  -3.73282   -2.27815   -2.27813   -2.27764   -0.52859   -0.50765   -0.13615   -0.11986
  -0.08289   -0.08005   -0.04687   -0.03662   -0.00287    0.00988    0.01429    0.04404
   0.05837    0.23237
 kpt# 130, nband= 18, wtk=  0.00694, kpt=  0.5000  0.4167  0.1667 (reduced coord)
  -3.73282   -2.27815   -2.27813   -2.27764   -0.52358   -0.50601   -0.14066   -0.12660
  -0.08592   -0.08206   -0.05837   -0.04160   -0.00110    0.00973    0.01304    0.04657
   0.05401    0.22675
 kpt# 131, nband= 18, wtk=  0.00694, kpt= -0.4167  0.4167  0.1667 (reduced coord)
  -3.73282   -2.27816   -2.27813   -2.27763   -0.51738   -0.50420   -0.14749   -0.13044
  -0.09211   -0.08292   -0.07263   -0.04855    0.00204    0.00901    0.01159    0.04662
   0.05013    0.23135
 kpt# 132, nband= 18, wtk=  0.00694, kpt= -0.3333  0.4167  0.1667 (reduced coord)
  -3.73282   -2.27816   -2.27814   -2.27763   -0.51134   -0.50301   -0.15217   -0.13265
  -0.10520   -0.08322   -0.07733   -0.05787    0.00389    0.00662    0.01207    0.04458
   0.05048    0.23510
 kpt# 133, nband= 18, wtk=  0.00694, kpt= -0.2500  0.4167  0.1667 (reduced coord)
  -3.73282   -2.27816   -2.27815   -2.27763   -0.50710   -0.50294   -0.15432   -0.13138
  -0.11510   -0.08864   -0.07294   -0.06692    0.00240    0.00867    0.01145    0.04528
   0.04963    0.23308
 kpt# 134, nband= 18, wtk=  0.00694, kpt= -0.1667  0.4167  0.1667 (reduced coord)
  -3.73282   -2.27816   -2.27815   -2.27763   -0.50746   -0.50256   -0.15370   -0.12863
  -0.11737   -0.08823   -0.07513   -0.06802    0.00253    0.00851    0.01185    0.04241
   0.05272    0.23402
 kpt# 135, nband= 18, wtk=  0.00347, kpt=  0.5000  0.5000  0.1667 (reduced coord)
  -3.73282   -2.27816   -2.27813   -2.27764   -0.52038   -0.50521   -0.15006   -0.13083
  -0.08429   -0.07899   -0.05664   -0.04730   -0.00431    0.00817    0.01242    0.04861
   0.05892    0.20704
 kpt# 136, nband= 18, wtk=  0.00694, kpt= -0.4167  0.5000  0.1667 (reduced coord)
  -3.73282   -2.27816   -2.27813   -2.27763   -0.51587   -0.50415   -0.15762   -0.13340
  -0.08293   -0.08012   -0.06714   -0.05255   -0.00189    0.00713    0.01110    0.05142
   0.05539    0.20536
 kpt# 137, nband= 18, wtk=  0.00694, kpt= -0.3333  0.5000  0.1667 (reduced coord)
  -3.73282   -2.27816   -2.27814   -2.27763   -0.51109   -0.50321   -0.15941   -0.13365
  -0.09607   -0.08108   -0.07521   -0.05879    0.00202    0.00642    0.01087    0.04842
   0.05271    0.21657
 kpt# 138, nband= 18, wtk=  0.00694, kpt= -0.2500  0.5000  0.1667 (reduced coord)
  -3.73282   -2.27816   -2.27815   -2.27763   -0.50716   -0.50287   -0.15484   -0.13139
  -0.11525   -0.08859   -0.07245   -0.06626    0.00235    0.00863    0.01138    0.04559
   0.04990    0.23021
 kpt# 139, nband= 18, wtk=  0.00347, kpt= -0.1667  0.5000  0.1667 (reduced coord)
  -3.73282   -2.27815   -2.27815   -2.27763   -0.50535   -0.50311   -0.14839   -0.12955
  -0.12615   -0.09179   -0.07184   -0.07155    0.00207    0.01071    0.01118    0.04487
   0.04770    0.23762
 kpt# 140, nband= 18, wtk=  0.00347, kpt= -0.4167 -0.4167  0.1667 (reduced coord)
  -3.73282   -2.27816   -2.27813   -2.27763   -0.51330   -0.50401   -0.16604   -0.13625
  -0.07810   -0.07751   -0.06299   -0.05787   -0.00545    0.00602    0.00994    0.05448
   0.05964    0.19171
 kpt# 141, nband= 18, wtk=  0.00694, kpt= -0.3333 -0.4167  0.1667 (reduced coord)
  -3.73282   -2.27816   -2.27813   -2.27763   -0.51049   -0.50372   -0.16823   -0.13658
  -0.08137   -0.07660   -0.07051   -0.06236   -0.00255    0.00570    0.00920    0.05551
   0.05619    0.19661
 kpt# 142, nband= 18, wtk=  0.00694, kpt= -0.2500 -0.4167  0.1667 (reduced coord)
  -3.73282   -2.27816   -2.27814   -2.27763   -0.50842   -0.50314   -0.16335   -0.13347
  -0.09792   -0.08420   -0.06991   -0.06793    0.00123    0.00713    0.00990    0.04784
   0.05505    0.21502
 kpt# 143, nband= 18, wtk=  0.00347, kpt= -0.3333 -0.3333  0.1667 (reduced coord)
  -3.73282   -2.27817   -2.27813   -2.27763   -0.51031   -0.50386   -0.17119   -0.13785
  -0.07822   -0.07436   -0.06508   -0.06455   -0.00561    0.00509    0.00864    0.05772
   0.05957    0.18989
 kpt# 144, nband= 18, wtk=  0.00694, kpt= -0.2500 -0.3333  0.1667 (reduced coord)
  -3.73282   -2.27816   -2.27813   -2.27763   -0.51094   -0.50326   -0.16700   -0.13568
  -0.08184   -0.08015   -0.07055   -0.06321   -0.00211    0.00567    0.00930    0.05357
   0.05852    0.20134
 kpt# 145, nband= 18, wtk=  0.00347, kpt= -0.2500 -0.2500  0.1667 (reduced coord)
  -3.73282   -2.27816   -2.27813   -2.27763   -0.51405   -0.50321   -0.16367   -0.13473
  -0.08565   -0.07916   -0.06146   -0.05883   -0.00468    0.00599    0.00995    0.05653
   0.05858    0.19967
 kpt# 146, nband= 18, wtk=  0.00116, kpt=  0.2500  0.2500  0.2500 (reduced coord)
  -3.73282   -2.27812   -2.27812   -2.27764   -0.54268   -0.51295   -0.14752   -0.08150
  -0.08150   -0.03704   -0.01385   -0.01385   -0.00417   -0.00417    0.00763    0.06380
   0.06380    0.19681
 kpt# 147, nband= 18, wtk=  0.00347, kpt=  0.3333  0.2500  0.2500 (reduced coord)
  -3.73282   -2.27812   -2.27812   -2.27764   -0.54081   -0.51240   -0.14421   -0.08778
  -0.08117   -0.03703   -0.03115   -0.02299   -0.00162    0.00252    0.01241    0.05599
   0.06250    0.21203
 kpt# 148, nband= 18, wtk=  0.00347, kpt=  0.4167  0.2500  0.2500 (reduced coord)
  -3.73282   -2.27813   -2.27812   -2.27764   -0.53582   -0.51044   -0.13856   -0.10140
  -0.08050   -0.06277   -0.03568   -0.03181   -0.00196    0.00856    0.01673    0.04194
   0.05958    0.23611
 kpt# 149, nband= 18, wtk=  0.00347, kpt=  0.5000  0.2500  0.2500 (reduced coord)
  -3.73282   -2.27814   -2.27813   -2.27764   -0.52853   -0.50774   -0.13699   -0.11569
  -0.08639   -0.07967   -0.04735   -0.03578   -0.00313    0.01009    0.01695    0.03652
   0.05778    0.23502
 kpt# 150, nband= 18, wtk=  0.00347, kpt= -0.4167  0.2500  0.2500 (reduced coord)
  -3.73282   -2.27816   -2.27813   -2.27764   -0.52031   -0.50532   -0.14979   -0.12637
  -0.09011   -0.07889   -0.05658   -0.04708   -0.00427    0.00835    0.01396    0.04186
   0.05782    0.21660
 kpt# 151, nband= 18, wtk=  0.00347, kpt= -0.3333  0.2500  0.2500 (reduced coord)
  -3.73282   -2.27816   -2.27813   -2.27763   -0.51310   -0.50426   -0.16468   -0.13380
  -0.08214   -0.07843   -0.06236   -0.05928   -0.00510    0.00607    0.01024    0.05003
   0.05855    0.20162
 kpt# 152, nband= 18, wtk=  0.00347, kpt= -0.2500  0.2500  0.2500 (reduced coord)
  -3.73282   -2.27817   -2.27813   -2.27763   -0.51015   -0.50405   -0.17021   -0.13661
  -0.07857   -0.07691   -0.06649   -0.06399   -0.00531    0.00509    0.00865    0.05561
   0.05892    0.19574
 kpt# 153, nband= 18, wtk=  0.00347, kpt=  0.3333  0.3333  0.2500 (reduced coord)
  -3.73282   -2.27812   -2.27812   -2.27764   -0.54064   -0.51263   -0.14276   -0.08785
  -0.08131   -0.03984   -0.03132   -0.02258   -0.00149    0.00237    0.01236    0.05684
   0.06238    0.21558
 kpt# 154, nband= 18, wtk=  0.00694, kpt=  0.4167  0.3333  0.2500 (reduced coord)
  -3.73282   -2.27813   -2.27812   -2.27764   -0.53723   -0.51134   -0.13848   -0.09777
  -0.08117   -0.05382   -0.03454   -0.03416   -0.00033    0.00691    0.01581    0.04793
   0.05883    0.23511
 kpt# 155, nband= 18, wtk=  0.00694, kpt=  0.5000  0.3333  0.2500 (reduced coord)
  -3.73282   -2.27814   -2.27813   -2.27764   -0.53112   -0.50892   -0.13481   -0.11107
  -0.08135   -0.07750   -0.04757   -0.03408   -0.00065    0.00994    0.01701    0.03995
   0.05495    0.24601
 kpt# 156, nband= 18, wtk=  0.00694, kpt= -0.4167  0.3333  0.2500 (reduced coord)
  -3.73282   -2.27815   -2.27813   -2.27764   -0.52340   -0.50623   -0.14137   -0.12292
  -0.08898   -0.08156   -0.05852   -0.04149   -0.00138    0.00973    0.01487    0.04034
   0.05421    0.23131
 kpt# 157, nband= 18, wtk=  0.00694, kpt= -0.3333  0.3333  0.2500 (reduced coord)
  -3.73282   -2.27816   -2.27813   -2.27763   -0.51570   -0.50435   -0.15696   -0.13120
  -0.08590   -0.08031   -0.06715   -0.05297   -0.00187    0.00720    0.01177    0.04710
   0.05489    0.21270
 kpt# 158, nband= 18, wtk=  0.00694, kpt= -0.2500  0.3333  0.2500 (reduced coord)
  -3.73282   -2.27816   -2.27813   -2.27763   -0.51033   -0.50392   -0.16745   -0.13555
  -0.08215   -0.07729   -0.07090   -0.06348   -0.00234    0.00573    0.00926    0.05386
   0.05538    0.20181
 kpt# 159, nband= 18, wtk=  0.00347, kpt=  0.4167  0.4167  0.2500 (reduced coord)
  -3.73282   -2.27813   -2.27812   -2.27764   -0.53554   -0.51081   -0.13628   -0.10285
  -0.08072   -0.06214   -0.03531   -0.03520   -0.00180    0.00838    0.01592    0.04513
   0.05982    0.24259
 kpt# 160, nband= 18, wtk=  0.00694, kpt=  0.5000  0.4167  0.2500 (reduced coord)
  -3.73282   -2.27814   -2.27813   -2.27764   -0.53102   -0.50905   -0.13391   -0.11273
  -0.08152   -0.07590   -0.04756   -0.03527   -0.00047    0.00979    0.01605    0.04284
   0.05481    0.24873
 kpt# 161, nband= 18, wtk=  0.00694, kpt= -0.4167  0.4167  0.2500 (reduced coord)
  -3.73282   -2.27815   -2.27813   -2.27764   -0.52448   -0.50661   -0.13681   -0.12230
  -0.08666   -0.08395   -0.06215   -0.03924    0.00096    0.01080    0.01409    0.04412
   0.04857    0.24727
 kpt# 162, nband= 18, wtk=  0.00694, kpt= -0.3333  0.4167  0.2500 (reduced coord)
  -3.73282   -2.27816   -2.27813   -2.27764   -0.51721   -0.50440   -0.14758   -0.12970
  -0.09246   -0.08249   -0.07300   -0.04855    0.00195    0.00893    0.01206    0.04535
   0.04930    0.23445
 kpt# 163, nband= 18, wtk=  0.00694, kpt= -0.2500  0.4167  0.2500 (reduced coord)
  -3.73282   -2.27816   -2.27814   -2.27763   -0.51097   -0.50335   -0.15897   -0.13317
  -0.09622   -0.08094   -0.07607   -0.05926    0.00206    0.00644    0.01101    0.04832
   0.05134    0.22031
 kpt# 164, nband= 18, wtk=  0.00347, kpt=  0.5000  0.5000  0.2500 (reduced coord)
  -3.73282   -2.27815   -2.27813   -2.27764   -0.52825   -0.50807   -0.13511   -0.12017
  -0.08162   -0.07981   -0.04727   -0.03837   -0.00306    0.00985    0.01508    0.04148
   0.05857    0.23198
 kpt# 165, nband= 18, wtk=  0.00694, kpt= -0.4167  0.5000  0.2500 (reduced coord)
  -3.73282   -2.27815   -2.27813   -2.27764   -0.52331   -0.50632   -0.14093   -0.12598
  -0.08501   -0.08177   -0.05871   -0.04216   -0.00125    0.00963    0.01365    0.04398
   0.05433    0.22691
 kpt# 166, nband= 18, wtk=  0.00694, kpt= -0.3333  0.5000  0.2500 (reduced coord)
  -3.73282   -2.27816   -2.27813   -2.27764   -0.51721   -0.50440   -0.14771   -0.13038
  -0.09192   -0.08190   -0.07312   -0.04848    0.00199    0.00898    0.01170    0.04663
   0.04899    0.23205
 kpt# 167, nband= 18, wtk=  0.00347, kpt= -0.2500  0.5000  0.2500 (reduced coord)
  -3.73282   -2.27816   -2.27814   -2.27763   -0.51128   -0.50308   -0.15235   -0.13299
  -0.10487   -0.08315   -0.07708   -0.05758    0.00387    0.00662    0.01198    0.04504
   0.05004    0.23471
 kpt# 168, nband= 18, wtk=  0.00347, kpt= -0.4167 -0.4167  0.2500 (reduced coord)
  -3.73282   -2.27816   -2.27813   -2.27764   -0.52016   -0.50547   -0.15038   -0.12966
  -0.08438   -0.07879   -0.05688   -0.04750   -0.00444    0.00821    0.01294    0.04570
   0.05879    0.20863
 kpt# 169, nband= 18, wtk=  0.00694, kpt= -0.3333 -0.4167  0.2500 (reduced coord)
  -3.73282   -2.27816   -2.27813   -2.27763   -0.51571   -0.50434   -0.15752   -0.13249
  -0.08377   -0.07992   -0.06729   -0.05268   -0.00193    0.00716    0.01141    0.04909
   0.05520    0.20802
 kpt# 170, nband= 18, wtk=  0.00347, kpt= -0.3333 -0.3333  0.2500 (reduced coord)
  -3.73282   -2.27816   -2.27813   -2.27763   -0.51314   -0.50421   -0.16555   -0.13516
  -0.07922   -0.07818   -0.06280   -0.05844   -0.00533    0.00604    0.01009    0.05204
   0.05917    0.19581
 kpt# 171, nband= 18, wtk=  0.00116, kpt=  0.3333  0.3333  0.3333 (reduced coord)
  -3.73282   -2.27812   -2.27812   -2.27764   -0.54216   -0.51368   -0.14300   -0.08139
  -0.08139   -0.04570   -0.01420   -0.01420   -0.00417   -0.00417    0.00794    0.06403
   0.06403    0.20918
 kpt# 172, nband= 18, wtk=  0.00347, kpt=  0.4167  0.3333  0.3333 (reduced coord)
  -3.73282   -2.27812   -2.27812   -2.27764   -0.54032   -0.51307   -0.13999   -0.08856
  -0.08107   -0.04303   -0.03214   -0.02320   -0.00165    0.00242    0.01286    0.05617
   0.06273    0.22340
 kpt# 173, nband= 18, wtk=  0.00347, kpt=  0.5000  0.3333  0.3333 (reduced coord)
  -3.73282   -2.27813   -2.27812   -2.27764   -0.53540   -0.51100   -0.13532   -0.10294
  -0.08042   -0.06198   -0.03625   -0.03585   -0.00200    0.00844    0.01712    0.04211
   0.05991    0.24224
 kpt# 174, nband= 18, wtk=  0.00347, kpt= -0.4167  0.3333  0.3333 (reduced coord)
  -3.73282   -2.27814   -2.27813   -2.27764   -0.52821   -0.50813   -0.13582   -0.11753
  -0.08379   -0.07958   -0.04754   -0.03775   -0.00322    0.00997    0.01667    0.03715
   0.05823    0.23354
 kpt# 175, nband= 18, wtk=  0.00347, kpt= -0.3333  0.3333  0.3333 (reduced coord)
  -3.73282   -2.27816   -2.27813   -2.27764   -0.52014   -0.50551   -0.15029   -0.12807
  -0.08653   -0.07876   -0.05686   -0.04736   -0.00443    0.00827    0.01351    0.04323
   0.05838    0.21204
 kpt# 176, nband= 18, wtk=  0.00347, kpt=  0.4167  0.4167  0.3333 (reduced coord)
  -3.73282   -2.27812   -2.27812   -2.27764   -0.54019   -0.51324   -0.13878   -0.08874
  -0.08118   -0.04493   -0.03238   -0.02289   -0.00156    0.00230    0.01281    0.05677
   0.06265    0.22678
 kpt# 177, nband= 18, wtk=  0.00694, kpt=  0.5000  0.4167  0.3333 (reduced coord)
  -3.73282   -2.27813   -2.27812   -2.27764   -0.53685   -0.51184   -0.13529   -0.09916
  -0.08106   -0.05305   -0.03890   -0.03453   -0.00036    0.00678    0.01630    0.04764
   0.05915    0.24353
 kpt# 178, nband= 18, wtk=  0.00694, kpt= -0.4167  0.4167  0.3333 (reduced coord)
  -3.73282   -2.27814   -2.27813   -2.27764   -0.53084   -0.50927   -0.13305   -0.11265
  -0.08129   -0.07590   -0.04780   -0.03629   -0.00063    0.00976    0.01705    0.04021
   0.05520    0.24763
 kpt# 179, nband= 18, wtk=  0.00694, kpt= -0.3333  0.4167  0.3333 (reduced coord)
  -3.73282   -2.27815   -2.27813   -2.27764   -0.52325   -0.50641   -0.14122   -0.12464
  -0.08616   -0.08157   -0.05874   -0.04210   -0.00136    0.00964    0.01431    0.04173
   0.05439    0.22852
 kpt# 180, nband= 18, wtk=  0.00347, kpt=  0.5000  0.5000  0.3333 (reduced coord)
  -3.73282   -2.27813   -2.27812   -2.27764   -0.53523   -0.51122   -0.13379   -0.10404
  -0.08055   -0.06128   -0.03846   -0.03564   -0.00191    0.00833    0.01662    0.04393
   0.06004    0.24727
 kpt# 181, nband= 18, wtk=  0.00694, kpt= -0.4167  0.5000  0.3333 (reduced coord)
  -3.73282   -2.27814   -2.27813   -2.27764   -0.53080   -0.50932   -0.13266   -0.11334
  -0.08135   -0.07524   -0.04782   -0.03676   -0.00056    0.00971    0.01669    0.04126
   0.05516    0.24865
 kpt# 182, nband= 18, wtk=  0.00347, kpt= -0.3333  0.5000  0.3333 (reduced coord)
  -3.73282   -2.27815   -2.27813   -2.27764   -0.52436   -0.50674   -0.13662   -0.12275
  -0.08606   -0.08349   -0.06236   -0.03960    0.00096    0.01069    0.01415    0.04382
   0.04865    0.24700
 kpt# 183, nband= 18, wtk=  0.00347, kpt= -0.4167 -0.4167  0.3333 (reduced coord)
  -3.73282   -2.27815   -2.27813   -2.27764   -0.52811   -0.50825   -0.13504   -0.11927
  -0.08193   -0.07963   -0.04751   -0.03881   -0.00319    0.00988    0.01594    0.03900
   0.05852    0.23242
 kpt# 184, nband= 18, wtk=  0.00116, kpt=  0.4167  0.4167  0.4167 (reduced coord)
  -3.73282   -2.27812   -2.27812   -2.27764   -0.54176   -0.51422   -0.13927   -0.08131
  -0.08131   -0.05224   -0.01445   -0.01445   -0.00416   -0.00416    0.00810    0.06419
   0.06419    0.21978
 kpt# 185, nband= 18, wtk=  0.00347, kpt=  0.5000  0.4167  0.4167 (reduced coord)
  -3.73282   -2.27812   -2.27812   -2.27764   -0.54000   -0.51350   -0.13698   -0.08928
  -0.08104   -0.04703   -0.03258   -0.02325   -0.00165    0.00234    0.01306    0.05641
   0.06285    0.23206
 kpt# 186, nband= 18, wtk=  0.00347, kpt= -0.4167  0.4167  0.4167 (reduced coord)
  -3.73282   -2.27813   -2.27812   -2.27764   -0.53518   -0.51128   -0.13342   -0.10408
  -0.08044   -0.06124   -0.03885   -0.03583   -0.00199    0.00835    0.01705    0.04286
   0.06008    0.24635
 kpt# 187, nband= 18, wtk=  0.00347, kpt=  0.5000  0.5000  0.4167 (reduced coord)
  -3.73282   -2.27812   -2.27812   -2.27764   -0.53995   -0.51357   -0.13649   -0.08939
  -0.08108   -0.04770   -0.03269   -0.02314   -0.00161    0.00229    0.01304    0.05662
   0.06282    0.23376
 kpt# 188, nband= 18, wtk=  0.00347, kpt= -0.4167  0.5000  0.4167 (reduced coord)
  -3.73282   -2.27813   -2.27812   -2.27764   -0.53671   -0.51202   -0.13401   -0.09978
  -0.08102   -0.05255   -0.04077   -0.03460   -0.00037    0.00674    0.01645    0.04755
   0.05926    0.24710
 kpt# 189, nband= 18, wtk=  0.00058, kpt=  0.5000  0.5000  0.5000 (reduced coord)
  -3.73282   -2.27812   -2.27812   -2.27764   -0.54161   -0.51443   -0.13778   -0.08128
  -0.08128   -0.05471   -0.01454   -0.01454   -0.00417   -0.00417    0.00817    0.06425
   0.06425    0.22475
