 Fermi (or HOMO) energy (hartree) =   0.05155   Average Vxc (hartree)=  -0.33450
 Eigenvalues (hartree) for nkpt= 189  k points:
 kpt#   1, nband= 18, wtk=  0.00058, kpt=  0.0000  0.0000  0.0000 (reduced coord)
  -3.73281   -2.27811   -2.27811   -2.27763   -0.54362   -0.51160   -0.15520   -0.08167
  -0.08167   -0.01933   -0.01320   -0.01320   -0.00416   -0.00416    0.00623    0.06334
   0.06334    0.17484
 kpt#   2, nband= 18, wtk=  0.00347, kpt=  0.0833  0.0000  0.0000 (reduced coord)
  -3.73281   -2.27812   -2.27811   -2.27763   -0.54189   -0.51087   -0.15286   -0.08668
  -0.08147   -0.03223   -0.02218   -0.01809   -0.00137    0.00270    0.00994    0.05647
   0.06175    0.18792
 kpt#   3, nband= 18, wtk=  0.00347, kpt=  0.1667  0.0000  0.0000 (reduced coord)
  -3.73281   -2.27812   -2.27811   -2.27763   -0.53696   -0.50889   -0.14654   -0.09877
  -0.08095   -0.06366   -0.03472   -0.01983   -0.00151    0.00886    0.01357    0.04546
   0.05859    0.21760
 kpt#   4, nband= 18, wtk=  0.00347, kpt=  0.2500  0.0000  0.0000 (reduced coord)
  -3.73281   -2.27814   -2.27812   -2.27763   -0.52961   -0.50634   -0.14012   -0.11384
  -0.09094   -0.08027   -0.04623   -0.03090   -0.00248    0.01035    0.01474    0.04262
   0.05666    0.23738
 kpt#   5, nband= 18, wtk=  0.00347, kpt=  0.3333  0.0000  0.0000 (reduced coord)
  -3.73281   -2.27815   -2.27812   -2.27762   -0.52120   -0.50426   -0.14733   -0.12477
  -0.09912   -0.07963   -0.05531   -0.04659   -0.00356    0.00847    0.01338    0.04606
   0.05666    0.22397
 kpt#   6, nband= 18, wtk=  0.00347, kpt=  0.4167  0.0000  0.0000 (reduced coord)
  -3.73281   -2.27815   -2.27812   -2.27762   -0.51354   -0.50380   -0.16210   -0.13136
  -0.09032   -0.07920   -0.06110   -0.06092   -0.00443    0.00608    0.01037    0.05010
   0.05733    0.21305
 kpt#   7, nband= 18, wtk=  0.00174, kpt=  0.5000  0.0000  0.0000 (reduced coord)
  -3.73281   -2.27816   -2.27812   -2.27762   -0.50955   -0.50471   -0.16808   -0.13401
  -0.08193   -0.07905   -0.06959   -0.06308   -0.00479    0.00508    0.00869    0.05174
   0.05765    0.20941
 kpt#   8, nband= 18, wtk=  0.00347, kpt=  0.0833  0.0833  0.0000 (reduced coord)
  -3.73281   -2.27812   -2.27811   -2.27763   -0.54185   -0.51093   -0.15256   -0.08664
  -0.08151   -0.03258   -0.02207   -0.01863   -0.00132    0.00266    0.00999    0.05672
   0.06172    0.18861
 kpt#   9, nband= 18, wtk=  0.00694, kpt=  0.1667  0.0833  0.0000 (reduced coord)
  -3.73281   -2.27812   -2.27811   -2.27763   -0.53848   -0.50962   -0.14798   -0.09482
  -0.08152   -0.05408   -0.03366   -0.01930   -0.00024    0.00752    0.01292    0.04988
   0.05746    0.21041
 kpt#  10, nband= 18, wtk=  0.00694, kpt=  0.2500  0.0833  0.0000 (reduced coord)
  -3.73281   -2.27813   -2.27812   -2.27763   -0.53231   -0.50737   -0.14116   -0.10723
  -0.08259   -0.08063   -0.04663   -0.02603   -0.00042    0.01088    0.01468    0.04406
   0.05361    0.23849
 kpt#  11, nband= 18, wtk=  0.00694, kpt=  0.3333  0.0833  0.0000 (reduced coord)
  -3.73281   -2.27814   -2.27812   -2.27763   -0.52440   -0.50502   -0.14075   -0.11972
  -0.09825   -0.08219   -0.05743   -0.03954   -0.00096    0.01017    0.01452    0.04283
   0.05400    0.23855
 kpt#  12, nband= 18, wtk=  0.00694, kpt=  0.4167  0.0833  0.0000 (reduced coord)
  -3.73281   -2.27815   -2.27812   -2.27762   -0.51631   -0.50367   -0.15417   -0.12797
  -0.09502   -0.08171   -0.06624   -0.05407   -0.00132    0.00731    0.01227    0.04619
   0.05490    0.22538
 kpt#  13, nband= 18, wtk=  0.00694, kpt=  0.5000  0.0833  0.0000 (reduced coord)
  -3.73281   -2.27816   -2.27813   -2.27762   -0.51015   -0.50413   -0.16477   -0.13261
  -0.08622   -0.07989   -0.07166   -0.06583   -0.00167    0.00578    0.00950    0.05066
   0.05418    0.21761
 kpt#  14, nband= 18, wtk=  0.00694, kpt= -0.4167  0.0833  0.0000 (reduced coord)
  -3.73281   -2.27816   -2.27813   -2.27762   -0.51033   -0.50394   -0.16464   -0.13261
  -0.08651   -0.08040   -0.07161   -0.06561   -0.00161    0.00576    0.00951    0.05072
   0.05483    0.21716
 kpt#  15, nband= 18, wtk=  0.00694, kpt= -0.3333  0.0833  0.0000 (reduced coord)
  -3.73281   -2.27815   -2.27812   -2.27762   -0.51656   -0.50339   -0.15375   -0.12823
  -0.09593   -0.08213   -0.06595   -0.05406   -0.00120    0.00730    0.01207    0.04725
   0.05579    0.22432
 kpt#  16, nband= 18, wtk=  0.00694, kpt= -0.2500  0.0833  0.0000 (reduced coord)
  -3.73281   -2.27814   -2.27812   -2.27763   -0.52463   -0.50473   -0.14053   -0.12041
  -0.09874   -0.08243   -0.05714   -0.03929   -0.00082    0.01026    0.01387    0.04482
   0.05441    0.23805
 kpt#  17, nband= 18, wtk=  0.00694, kpt= -0.1667  0.0833  0.0000 (reduced coord)
  -3.73281   -2.27813   -2.27812   -2.27763   -0.53249   -0.50713   -0.14202   -0.10702
  -0.08293   -0.08067   -0.04641   -0.02504   -0.00031    0.01113    0.01385    0.04596
   0.05323    0.23655
 kpt#  18, nband= 18, wtk=  0.00347, kpt= -0.0833  0.0833  0.0000 (reduced coord)
  -3.73281   -2.27812   -2.27811   -2.27763   -0.53860   -0.50945   -0.14878   -0.09466
  -0.08156   -0.05400   -0.03359   -0.01781   -0.00022    0.00761    0.01248    0.05017
   0.05730    0.20825
 kpt#  19, nband= 18, wtk=  0.00347, kpt=  0.1667  0.1667  0.0000 (reduced coord)
  -3.73281   -2.27812   -2.27811   -2.27763   -0.53681   -0.50909   -0.14561   -0.09903
  -0.08108   -0.06395   -0.03451   -0.02146   -0.00144    0.00876    0.01329    0.04735
   0.05872    0.21840
 kpt#  20, nband= 18, wtk=  0.00694, kpt=  0.2500  0.1667  0.0000 (reduced coord)
  -3.73281   -2.27813   -2.27812   -2.27763   -0.53222   -0.50748   -0.14069   -0.10818
  -0.08252   -0.08005   -0.04647   -0.02683   -0.00025    0.01078    0.01381    0.04747
   0.05294    0.23844
 kpt#  21, nband= 18, wtk=  0.00694, kpt=  0.3333  0.1667  0.0000 (reduced coord)
  -3.73281   -2.27814   -2.27812   -2.27763   -0.52549   -0.50536   -0.13820   -0.11779
  -0.09476   -0.08537   -0.06074   -0.03662    0.00097    0.01192    0.01349    0.04426
   0.05095    0.24993
 kpt#  22, nband= 18, wtk=  0.00694, kpt=  0.4167  0.1667  0.0000 (reduced coord)
  -3.73281   -2.27815   -2.27813   -2.27762   -0.51789   -0.50362   -0.14557   -0.12553
  -0.09861   -0.08729   -0.07158   -0.04952    0.00196    0.00881    0.01350    0.04155
   0.05319    0.24336
 kpt#  23, nband= 18, wtk=  0.00694, kpt=  0.5000  0.1667  0.0000 (reduced coord)
  -3.73281   -2.27815   -2.27813   -2.27762   -0.51110   -0.50322   -0.15632   -0.13009
  -0.09883   -0.08153   -0.08004   -0.06203    0.00243    0.00647    0.01182    0.04459
   0.05227    0.23484
 kpt#  24, nband= 18, wtk=  0.00694, kpt= -0.4167  0.1667  0.0000 (reduced coord)
  -3.73281   -2.27815   -2.27813   -2.27762   -0.50778   -0.50382   -0.16072   -0.13114
  -0.09893   -0.08403   -0.07342   -0.07197    0.00170    0.00735    0.01017    0.04673
   0.05170    0.23093
 kpt#  25, nband= 18, wtk=  0.00694, kpt= -0.3333  0.1667  0.0000 (reduced coord)
  -3.73281   -2.27815   -2.27813   -2.27762   -0.51150   -0.50279   -0.15584   -0.12932
  -0.09932   -0.08437   -0.07928   -0.06222    0.00253    0.00643    0.01197    0.04310
   0.05539    0.23381
 kpt#  26, nband= 18, wtk=  0.00694, kpt= -0.2500  0.1667  0.0000 (reduced coord)
  -3.73281   -2.27815   -2.27813   -2.27762   -0.51830   -0.50314   -0.14475   -0.12445
  -0.10087   -0.08899   -0.07109   -0.04986    0.00204    0.00878    0.01362    0.04087
   0.05611    0.24266
 kpt#  27, nband= 18, wtk=  0.00347, kpt= -0.1667  0.1667  0.0000 (reduced coord)
  -3.73281   -2.27814   -2.27812   -2.27763   -0.52585   -0.50491   -0.13856   -0.11606
  -0.09776   -0.08566   -0.06039   -0.03604    0.00098    0.01224    0.01339    0.04351
   0.05273    0.25086
 kpt#  28, nband= 18, wtk=  0.00347, kpt=  0.2500  0.2500  0.0000 (reduced coord)
  -3.73281   -2.27814   -2.27812   -2.27763   -0.52937   -0.50665   -0.13912   -0.11707
  -0.08747   -0.08041   -0.04615   -0.03235   -0.00250    0.01009    0.01340    0.04722
   0.05746    0.23523
 kpt#  29, nband= 18, wtk=  0.00694, kpt=  0.3333  0.2500  0.0000 (reduced coord)
  -3.73281   -2.27814   -2.27812   -2.27763   -0.52426   -0.50516   -0.14042   -0.12522
  -0.09180   -0.08245   -0.05746   -0.03991   -0.00081    0.01015    0.01250    0.04922
   0.05404    0.23030
 kpt#  30, nband= 18, wtk=  0.00694, kpt=  0.4167  0.2500  0.0000 (reduced coord)
  -3.73281   -2.27815   -2.27813   -2.27762   -0.51789   -0.50361   -0.14619   -0.12868
  -0.09453   -0.08724   -0.07141   -0.04909    0.00209    0.00893    0.01223    0.04409
   0.05435    0.23462
 kpt#  31, nband= 18, wtk=  0.00694, kpt=  0.5000  0.2500  0.0000 (reduced coord)
  -3.73281   -2.27815   -2.27813   -2.27762   -0.51157   -0.50275   -0.15093   -0.13023
  -0.10717   -0.08418   -0.07907   -0.05953    0.00396    0.00660    0.01267    0.04189
   0.05316    0.23824
 kpt#  32, nband= 18, wtk=  0.00694, kpt= -0.4167  0.2500  0.0000 (reduced coord)
  -3.73281   -2.27815   -2.27814   -2.27762   -0.50681   -0.50323   -0.15285   -0.13001
  -0.11613   -0.08841   -0.07473   -0.06897    0.00257    0.00872    0.01175    0.04389
   0.04976    0.23861
 kpt#  33, nband= 18, wtk=  0.00694, kpt= -0.3333  0.2500  0.0000 (reduced coord)
  -3.73281   -2.27815   -2.27814   -2.27762   -0.50712   -0.50292   -0.15236   -0.12803
  -0.11755   -0.08788   -0.07775   -0.06883    0.00266    0.00859    0.01209    0.04148
   0.05242    0.23948
 kpt#  34, nband= 18, wtk=  0.00347, kpt= -0.2500  0.2500  0.0000 (reduced coord)
  -3.73281   -2.27815   -2.27813   -2.27762   -0.51198   -0.50232   -0.14950   -0.12680
  -0.10956   -0.08635   -0.08111   -0.06080    0.00402    0.00658    0.01345    0.03897
   0.05621    0.24230
 kpt#  35, nband= 18, wtk=  0.00347, kpt=  0.3333  0.3333  0.0000 (reduced coord)
  -3.73281   -2.27815   -2.27812   -2.27762   -0.52098   -0.50449   -0.14855   -0.13100
  -0.08947   -0.07949   -0.05582   -0.04633   -0.00384    0.00821    0.01197    0.05276
   0.05833    0.20969
 kpt#  36, nband= 18, wtk=  0.00694, kpt=  0.4167  0.3333  0.0000 (reduced coord)
  -3.73281   -2.27815   -2.27812   -2.27762   -0.51633   -0.50361   -0.15644   -0.13340
  -0.08517   -0.08217   -0.06634   -0.05270   -0.00154    0.00715    0.01096    0.05271
   0.05715    0.20721
 kpt#  37, nband= 18, wtk=  0.00694, kpt=  0.5000  0.3333  0.0000 (reduced coord)
  -3.73281   -2.27815   -2.27813   -2.27762   -0.51133   -0.50293   -0.15892   -0.13314
  -0.09657   -0.08222   -0.07539   -0.05954    0.00216    0.00638    0.01100    0.04689
   0.05587    0.21673
 kpt#  38, nband= 18, wtk=  0.00694, kpt= -0.4167  0.3333  0.0000 (reduced coord)
  -3.73281   -2.27815   -2.27814   -2.27762   -0.50706   -0.50295   -0.15485   -0.13018
  -0.11646   -0.08839   -0.07254   -0.06683    0.00239    0.00857    0.01149    0.04472
   0.05117    0.22876
 kpt#  39, nband= 18, wtk=  0.00347, kpt= -0.3333  0.3333  0.0000 (reduced coord)
  -3.73281   -2.27814   -2.27814   -2.27762   -0.50422   -0.50422   -0.14836   -0.12907
  -0.12661   -0.09175   -0.07249   -0.07097    0.00209    0.01084    0.01108    0.04486
   0.04774    0.23733
 kpt#  40, nband= 18, wtk=  0.00347, kpt=  0.4167  0.4167  0.0000 (reduced coord)
  -3.73281   -2.27815   -2.27812   -2.27762   -0.51366   -0.50360   -0.16551   -0.13678
  -0.07926   -0.07835   -0.06265   -0.05768   -0.00522    0.00599    0.00982    0.05796
   0.05966    0.19115
 kpt#  41, nband= 18, wtk=  0.00694, kpt=  0.5000  0.4167  0.0000 (reduced coord)
  -3.73281   -2.27816   -2.27813   -2.27762   -0.51066   -0.50351   -0.16845   -0.13726
  -0.08068   -0.07732   -0.07021   -0.06176   -0.00257    0.00567    0.00919    0.05564
   0.05879    0.19371
 kpt#  42, nband= 18, wtk=  0.00347, kpt= -0.4167  0.4167  0.0000 (reduced coord)
  -3.73281   -2.27815   -2.27813   -2.27762   -0.50829   -0.50324   -0.16419   -0.13427
  -0.09776   -0.08407   -0.06905   -0.06609    0.00104    0.00708    0.00980    0.04887
   0.05565    0.20956
 kpt#  43, nband= 18, wtk=  0.00174, kpt=  0.5000  0.5000  0.0000 (reduced coord)
  -3.73281   -2.27816   -2.27812   -2.27762   -0.51027   -0.50387   -0.17209   -0.13906
  -0.07765   -0.07175   -0.06531   -0.06378   -0.00593    0.00510    0.00863    0.05998
   0.06023    0.18443
 kpt#  44, nband= 18, wtk=  0.00116, kpt=  0.0833  0.0833  0.0833 (reduced coord)
  -3.73281   -2.27811   -2.27811   -2.27763   -0.54349   -0.51178   -0.15425   -0.08164
  -0.08164   -0.02182   -0.01329   -0.01329   -0.00416   -0.00416    0.00653    0.06340
   0.06340    0.17768
 kpt#  45, nband= 18, wtk=  0.00347, kpt=  0.1667  0.0833  0.0833 (reduced coord)
  -3.73281   -2.27812   -2.27811   -2.27763   -0.54168   -0.51116   -0.15137   -0.08684
  -0.08137   -0.03229   -0.02242   -0.02152   -0.00146    0.00269    0.01068    0.05617
   0.06193    0.19235
 kpt#  46, nband= 18, wtk=  0.00347, kpt=  0.2500  0.0833  0.0833 (reduced coord)
  -3.73281   -2.27812   -2.27811   -2.27763   -0.53669   -0.50925   -0.14485   -0.09920
  -0.08078   -0.06350   -0.03504   -0.02252   -0.00168    0.00881    0.01466    0.04386
   0.05882    0.22235
 kpt#  47, nband= 18, wtk=  0.00347, kpt=  0.3333  0.0833  0.0833 (reduced coord)
  -3.73281   -2.27814   -2.27812   -2.27763   -0.52931   -0.50673   -0.13933   -0.11372
  -0.09038   -0.08003   -0.04662   -0.03196   -0.00269    0.01031    0.01573    0.03972
   0.05687    0.23723
 kpt#  48, nband= 18, wtk=  0.00347, kpt=  0.4167  0.0833  0.0833 (reduced coord)
  -3.73281   -2.27815   -2.27812   -2.27763   -0.52089   -0.50462   -0.14805   -0.12433
  -0.09745   -0.07935   -0.05572   -0.04674   -0.00376    0.00847    0.01386    0.04352
   0.05683    0.22386
 kpt#  49, nband= 18, wtk=  0.00347, kpt=  0.5000  0.0833  0.0833 (reduced coord)
  -3.73281   -2.27815   -2.27812   -2.27762   -0.51328   -0.50408   -0.16265   -0.13158
  -0.08853   -0.07896   -0.06144   -0.06079   -0.00458    0.00609    0.01041    0.04897
   0.05749    0.21211
 kpt#  50, nband= 18, wtk=  0.00347, kpt= -0.4167  0.0833  0.0833 (reduced coord)
  -3.73281   -2.27816   -2.27812   -2.27762   -0.50960   -0.50465   -0.16837   -0.13438
  -0.08126   -0.07897   -0.06916   -0.06322   -0.00485    0.00509    0.00869    0.05224
   0.05782    0.20735
 kpt#  51, nband= 18, wtk=  0.00347, kpt= -0.3333  0.0833  0.0833 (reduced coord)
  -3.73281   -2.27815   -2.27812   -2.27762   -0.51376   -0.50354   -0.16211   -0.13199
  -0.09035   -0.07931   -0.06100   -0.06051   -0.00439    0.00606    0.01026    0.05205
   0.05750    0.21037
 kpt#  52, nband= 18, wtk=  0.00347, kpt= -0.2500  0.0833  0.0833 (reduced coord)
  -3.73281   -2.27815   -2.27812   -2.27762   -0.52138   -0.50404   -0.14702   -0.12622
  -0.09872   -0.07982   -0.05510   -0.04637   -0.00347    0.00843    0.01284    0.04894
   0.05679    0.22156
 kpt#  53, nband= 18, wtk=  0.00347, kpt= -0.1667  0.0833  0.0833 (reduced coord)
  -3.73281   -2.27814   -2.27812   -2.27763   -0.52973   -0.50618   -0.14041   -0.11451
  -0.09058   -0.08043   -0.04599   -0.03057   -0.00237    0.01031    0.01393    0.04527
   0.05671    0.23703
 kpt#  54, nband= 18, wtk=  0.00347, kpt= -0.0833  0.0833  0.0833 (reduced coord)
  -3.73281   -2.27812   -2.27811   -2.27763   -0.53700   -0.50883   -0.14681   -0.09869
  -0.08106   -0.06384   -0.03452   -0.01944   -0.00142    0.00885    0.01305    0.04678
   0.05855    0.21605
 kpt#  55, nband= 18, wtk=  0.00347, kpt=  0.1667  0.1667  0.0833 (reduced coord)
  -3.73281   -2.27812   -2.27811   -2.27763   -0.54157   -0.51132   -0.15051   -0.08676
  -0.08148   -0.03341   -0.02275   -0.02212   -0.00135    0.00258    0.01076    0.05685
   0.06184    0.19432
 kpt#  56, nband= 18, wtk=  0.00694, kpt=  0.2500  0.1667  0.0833 (reduced coord)
  -3.73281   -2.27812   -2.27811   -2.27763   -0.53814   -0.51008   -0.14569   -0.09536
  -0.08141   -0.05423   -0.03385   -0.02329   -0.00026    0.00731    0.01392    0.04919
   0.05787    0.21646
 kpt#  57, nband= 18, wtk=  0.00694, kpt=  0.3333  0.1667  0.0833 (reduced coord)
  -3.73281   -2.27813   -2.27812   -2.27763   -0.53195   -0.50784   -0.13943   -0.10799
  -0.08198   -0.08029   -0.04695   -0.02814   -0.00053    0.01054    0.01567    0.04210
   0.05405    0.24118
 kpt#  58, nband= 18, wtk=  0.00694, kpt=  0.4167  0.1667  0.0833 (reduced coord)
  -3.73281   -2.27814   -2.27812   -2.27763   -0.52404   -0.50545   -0.14104   -0.12004
  -0.09602   -0.08190   -0.05782   -0.03999   -0.00113    0.01004    0.01499    0.04110
   0.05384    0.23729
 kpt#  59, nband= 18, wtk=  0.00694, kpt=  0.5000  0.1667  0.0833 (reduced coord)
  -3.73281   -2.27815   -2.27812   -2.27762   -0.51602   -0.50400   -0.15501   -0.12860
  -0.09246   -0.08120   -0.06659   -0.05382   -0.00150    0.00730    0.01229    0.04566
   0.05451    0.22315
 kpt#  60, nband= 18, wtk=  0.00694, kpt= -0.4167  0.1667  0.0833 (reduced coord)
  -3.73281   -2.27816   -2.27813   -2.27762   -0.51003   -0.50425   -0.16543   -0.13327
  -0.08495   -0.07916   -0.07152   -0.06556   -0.00183    0.00578    0.00944    0.05118
   0.05417    0.21418
 kpt#  61, nband= 18, wtk=  0.00694, kpt= -0.3333  0.1667  0.0833 (reduced coord)
  -3.73281   -2.27816   -2.27813   -2.27762   -0.51053   -0.50372   -0.16508   -0.13330
  -0.08553   -0.08071   -0.07135   -0.06504   -0.00168    0.00573    0.00947    0.05132
   0.05600    0.21323
 kpt#  62, nband= 18, wtk=  0.00694, kpt= -0.2500  0.1667  0.0833 (reduced coord)
  -3.73281   -2.27815   -2.27812   -2.27762   -0.51670   -0.50322   -0.15390   -0.12936
  -0.09487   -0.08241   -0.06575   -0.05382   -0.00116    0.00727    0.01176    0.04861
   0.05691    0.22074
 kpt#  63, nband= 18, wtk=  0.00694, kpt= -0.1667  0.1667  0.0833 (reduced coord)
  -3.73281   -2.27814   -2.27812   -2.27762   -0.52468   -0.50466   -0.14043   -0.12187
  -0.09753   -0.08257   -0.05703   -0.03923   -0.00074    0.01031    0.01322    0.04671
   0.05476    0.23607
 kpt#  64, nband= 18, wtk=  0.00694, kpt= -0.0833  0.1667  0.0833 (reduced coord)
  -3.73281   -2.27813   -2.27812   -2.27763   -0.53246   -0.50717   -0.14187   -0.10733
  -0.08289   -0.08051   -0.04635   -0.02532   -0.00025    0.01112    0.01351    0.04727
   0.05292    0.23633
 kpt#  65, nband= 18, wtk=  0.00347, kpt=  0.2500  0.2500  0.0833 (reduced coord)
  -3.73281   -2.27812   -2.27811   -2.27763   -0.53643   -0.50960   -0.14311   -0.09987
  -0.08100   -0.06379   -0.03468   -0.02540   -0.00154    0.00862    0.01407    0.04710
   0.05905    0.22455
 kpt#  66, nband= 18, wtk=  0.00694, kpt=  0.3333  0.2500  0.0833 (reduced coord)
  -3.73281   -2.27813   -2.27812   -2.27763   -0.53182   -0.50800   -0.13867   -0.10953
  -0.08206   -0.07901   -0.04677   -0.02937   -0.00029    0.01036    0.01447    0.04642
   0.05347    0.24255
 kpt#  67, nband= 18, wtk=  0.00694, kpt=  0.4167  0.2500  0.0833 (reduced coord)
  -3.73281   -2.27814   -2.27812   -2.27763   -0.52511   -0.50582   -0.13777   -0.11944
  -0.09177   -0.08503   -0.06118   -0.03738    0.00096    0.01153    0.01368    0.04477
   0.04946    0.24897
 kpt#  68, nband= 18, wtk=  0.00694, kpt=  0.5000  0.2500  0.0833 (reduced coord)
  -3.73281   -2.27815   -2.27813   -2.27762   -0.51757   -0.50398   -0.14633   -0.12703
  -0.09606   -0.08583   -0.07202   -0.04914    0.00193    0.00885    0.01309    0.04263
   0.05150    0.24124
 kpt#  69, nband= 18, wtk=  0.00694, kpt= -0.4167  0.2500  0.0833 (reduced coord)
  -3.73281   -2.27815   -2.27813   -2.27762   -0.51091   -0.50342   -0.15717   -0.13118
  -0.09778   -0.08072   -0.07922   -0.06125    0.00231    0.00648    0.01156    0.04604
   0.05115    0.23113
 kpt#  70, nband= 18, wtk=  0.00694, kpt= -0.3333  0.2500  0.0833 (reduced coord)
  -3.73281   -2.27815   -2.27813   -2.27762   -0.50789   -0.50370   -0.16144   -0.13182
  -0.09846   -0.08422   -0.07250   -0.07088    0.00159    0.00730    0.01010    0.04674
   0.05290    0.22650
 kpt#  71, nband= 18, wtk=  0.00694, kpt= -0.2500  0.2500  0.0833 (reduced coord)
  -3.73281   -2.27815   -2.27813   -2.27762   -0.51160   -0.50267   -0.15635   -0.12996
  -0.09861   -0.08482   -0.07843   -0.06179    0.00250    0.00640    0.01181    0.04339
   0.05663    0.22988
 kpt#  72, nband= 18, wtk=  0.00694, kpt= -0.1667  0.2500  0.0833 (reduced coord)
  -3.73281   -2.27815   -2.27813   -2.27762   -0.51830   -0.50314   -0.14493   -0.12548
  -0.09947   -0.08913   -0.07101   -0.04973    0.00207    0.00881    0.01329    0.04148
   0.05650    0.24038
 kpt#  73, nband= 18, wtk=  0.00694, kpt= -0.0833  0.2500  0.0833 (reduced coord)
  -3.73281   -2.27814   -2.27812   -2.27763   -0.52576   -0.50503   -0.13847   -0.11654
  -0.09695   -0.08559   -0.06048   -0.03618    0.00098    0.01216    0.01341    0.04373
   0.05223    0.25062
 kpt#  74, nband= 18, wtk=  0.00347, kpt=  0.3333  0.3333  0.0833 (reduced coord)
  -3.73281   -2.27814   -2.27812   -2.27763   -0.52896   -0.50716   -0.13768   -0.11862
  -0.08514   -0.08022   -0.04651   -0.03435   -0.00267    0.00997    0.01370    0.04613
   0.05796    0.23356
 kpt#  75, nband= 18, wtk=  0.00694, kpt=  0.4167  0.3333  0.0833 (reduced coord)
  -3.73281   -2.27814   -2.27812   -2.27763   -0.52388   -0.50562   -0.14046   -0.12632
  -0.08850   -0.08223   -0.05794   -0.04071   -0.00093    0.00994    0.01263    0.04868
   0.05371    0.22798
 kpt#  76, nband= 18, wtk=  0.00694, kpt=  0.5000  0.3333  0.0833 (reduced coord)
  -3.73281   -2.27815   -2.27813   -2.27762   -0.51757   -0.50397   -0.14690   -0.12987
  -0.09287   -0.08504   -0.07201   -0.04877    0.00208    0.00900    0.01180    0.04553
   0.05226    0.23235
 kpt#  77, nband= 18, wtk=  0.00694, kpt= -0.4167  0.3333  0.0833 (reduced coord)
  -3.73281   -2.27815   -2.27813   -2.27762   -0.51135   -0.50298   -0.15162   -0.13169
  -0.10600   -0.08353   -0.07809   -0.05864    0.00393    0.00662    0.01232    0.04342
   0.05164    0.23632
 kpt#  78, nband= 18, wtk=  0.00694, kpt= -0.3333  0.3333  0.0833 (reduced coord)
  -3.73281   -2.27815   -2.27814   -2.27762   -0.50676   -0.50328   -0.15356   -0.13087
  -0.11543   -0.08859   -0.07370   -0.06799    0.00250    0.00872    0.01158    0.04475
   0.04949    0.23610
 kpt#  79, nband= 18, wtk=  0.00694, kpt= -0.2500  0.3333  0.0833 (reduced coord)
  -3.73281   -2.27815   -2.27814   -2.27762   -0.50718   -0.50285   -0.15292   -0.12816
  -0.11751   -0.08805   -0.07686   -0.06842    0.00261    0.00854    0.01202    0.04166
   0.05287    0.23716
 kpt#  80, nband= 18, wtk=  0.00694, kpt= -0.1667  0.3333  0.0833 (reduced coord)
  -3.73281   -2.27815   -2.27813   -2.27762   -0.51193   -0.50238   -0.14970   -0.12731
  -0.10922   -0.08599   -0.08083   -0.06067    0.00401    0.00658    0.01334    0.03935
   0.05580    0.24176
 kpt#  81, nband= 18, wtk=  0.00694, kpt= -0.0833  0.3333  0.0833 (reduced coord)
  -3.73281   -2.27815   -2.27813   -2.27762   -0.51816   -0.50331   -0.14498   -0.12449
  -0.10051   -0.08835   -0.07128   -0.04978    0.00200    0.00879    0.01369    0.04091
   0.05488    0.24379
 kpt#  82, nband= 18, wtk=  0.00347, kpt=  0.4167  0.4167  0.0833 (reduced coord)
  -3.73281   -2.27815   -2.27812   -2.27763   -0.52062   -0.50490   -0.14937   -0.13134
  -0.08622   -0.07918   -0.05632   -0.04681   -0.00409    0.00818    0.01209    0.05121
   0.05876    0.20744
 kpt#  83, nband= 18, wtk=  0.00694, kpt=  0.5000  0.4167  0.0833 (reduced coord)
  -3.73281   -2.27815   -2.27812   -2.27762   -0.51603   -0.50394   -0.15720   -0.13375
  -0.08303   -0.08129   -0.06686   -0.05256   -0.00173    0.00713    0.01095    0.05297
   0.05591    0.20513
 kpt#  84, nband= 18, wtk=  0.00694, kpt= -0.4167  0.4167  0.0833 (reduced coord)
  -3.73281   -2.27815   -2.27813   -2.27762   -0.51112   -0.50316   -0.15936   -0.13366
  -0.09616   -0.08150   -0.07501   -0.05893    0.00206    0.00640    0.01086    0.04792
   0.05435    0.21534
 kpt#  85, nband= 18, wtk=  0.00694, kpt= -0.3333  0.4167  0.0833 (reduced coord)
  -3.73281   -2.27815   -2.27814   -2.27762   -0.50695   -0.50307   -0.15501   -0.13094
  -0.11576   -0.08849   -0.07228   -0.06627    0.00235    0.00861    0.01139    0.04549
   0.05037    0.22851
 kpt#  86, nband= 18, wtk=  0.00694, kpt= -0.2500  0.4167  0.0833 (reduced coord)
  -3.73281   -2.27814   -2.27814   -2.27762   -0.50422   -0.50422   -0.14836   -0.12915
  -0.12652   -0.09179   -0.07227   -0.07117    0.00209    0.01085    0.01107    0.04490
   0.04770    0.23747
 kpt#  87, nband= 18, wtk=  0.00694, kpt= -0.1667  0.4167  0.0833 (reduced coord)
  -3.73281   -2.27815   -2.27814   -2.27762   -0.50702   -0.50302   -0.15214   -0.12832
  -0.11738   -0.08797   -0.07735   -0.06923    0.00266    0.00864    0.01205    0.04193
   0.05154    0.24057
 kpt#  88, nband= 18, wtk=  0.00694, kpt= -0.0833  0.4167  0.0833 (reduced coord)
  -3.73281   -2.27815   -2.27813   -2.27762   -0.51132   -0.50299   -0.15583   -0.12937
  -0.09944   -0.08314   -0.07982   -0.06234    0.00250    0.00645    0.01198    0.04353
   0.05380    0.23573
 kpt#  89, nband= 18, wtk=  0.00347, kpt=  0.5000  0.5000  0.0833 (reduced coord)
  -3.73281   -2.27815   -2.27812   -2.27762   -0.51341   -0.50387   -0.16600   -0.13685
  -0.07806   -0.07752   -0.06303   -0.05762   -0.00541    0.00601    0.00985    0.05670
   0.05982    0.19010
 kpt#  90, nband= 18, wtk=  0.00694, kpt= -0.4167  0.5000  0.0833 (reduced coord)
  -3.73281   -2.27816   -2.27813   -2.27762   -0.51050   -0.50369   -0.16856   -0.13722
  -0.08070   -0.07674   -0.07025   -0.06175   -0.00264    0.00568    0.00918    0.05598
   0.05766    0.19374
 kpt#  91, nband= 18, wtk=  0.00694, kpt= -0.3333  0.5000  0.0833 (reduced coord)
  -3.73281   -2.27815   -2.27813   -2.27762   -0.50826   -0.50328   -0.16395   -0.13406
  -0.09776   -0.08415   -0.06926   -0.06661    0.00109    0.00709    0.00982    0.04856
   0.05553    0.21100
 kpt#  92, nband= 18, wtk=  0.00694, kpt= -0.2500  0.5000  0.0833 (reduced coord)
  -3.73281   -2.27815   -2.27814   -2.27762   -0.50715   -0.50287   -0.15436   -0.12933
  -0.11702   -0.08835   -0.07350   -0.06753    0.00246    0.00854    0.01166    0.04357
   0.05207    0.23087
 kpt#  93, nband= 18, wtk=  0.00694, kpt= -0.1667  0.5000  0.0833 (reduced coord)
  -3.73281   -2.27815   -2.27814   -2.27762   -0.50691   -0.50314   -0.15232   -0.12905
  -0.11688   -0.08820   -0.07609   -0.06938    0.00263    0.00869    0.01192    0.04284
   0.05052    0.24024
 kpt#  94, nband= 18, wtk=  0.00347, kpt= -0.0833  0.5000  0.0833 (reduced coord)
  -3.73281   -2.27815   -2.27813   -2.27762   -0.50774   -0.50387   -0.16045   -0.13089
  -0.09914   -0.08395   -0.07365   -0.07246    0.00174    0.00738    0.01019    0.04683
   0.05117    0.23260
 kpt#  95, nband= 18, wtk=  0.00347, kpt= -0.4167 -0.4167  0.0833 (reduced coord)
  -3.73281   -2.27816   -2.27812   -2.27762   -0.51023   -0.50392   -0.17184   -0.13875
  -0.07776   -0.07245   -0.06515   -0.06412   -0.00584    0.00510    0.00864    0.05937
   0.06005    0.18586
 kpt#  96, nband= 18, wtk=  0.00694, kpt= -0.3333 -0.4167  0.0833 (reduced coord)
  -3.73281   -2.27816   -2.27813   -2.27762   -0.51076   -0.50342   -0.16787   -0.13673
  -0.08084   -0.07868   -0.07042   -0.06233   -0.00237    0.00567    0.00924    0.05477
   0.05909    0.19644
 kpt#  97, nband= 18, wtk=  0.00694, kpt= -0.2500 -0.4167  0.0833 (reduced coord)
  -3.73281   -2.27815   -2.27813   -2.27762   -0.51151   -0.50275   -0.15813   -0.13221
  -0.09709   -0.08331   -0.07626   -0.06035    0.00229    0.00637    0.01124    0.04556
   0.05690    0.22025
 kpt#  98, nband= 18, wtk=  0.00694, kpt= -0.1667 -0.4167  0.0833 (reduced coord)
  -3.73281   -2.27815   -2.27813   -2.27762   -0.51178   -0.50253   -0.15023   -0.12862
  -0.10834   -0.08512   -0.08007   -0.06025    0.00399    0.00659    0.01305    0.04042
   0.05468    0.24027
 kpt#  99, nband= 18, wtk=  0.00347, kpt= -0.3333 -0.3333  0.0833 (reduced coord)
  -3.73281   -2.27815   -2.27812   -2.27762   -0.51385   -0.50341   -0.16465   -0.13604
  -0.08223   -0.07870   -0.06212   -0.05810   -0.00495    0.00599    0.00987    0.05789
   0.05921    0.19458
 kpt# 100, nband= 18, wtk=  0.00694, kpt= -0.2500 -0.3333  0.0833 (reduced coord)
  -3.73281   -2.27815   -2.27812   -2.27762   -0.51657   -0.50335   -0.15548   -0.13239
  -0.08866   -0.08245   -0.06593   -0.05301   -0.00135    0.00719    0.01113    0.05155
   0.05794    0.21107
 kpt# 101, nband= 18, wtk=  0.00694, kpt= -0.1667 -0.3333  0.0833 (reduced coord)
  -3.73281   -2.27815   -2.27813   -2.27762   -0.51815   -0.50331   -0.14547   -0.12709
  -0.09699   -0.08863   -0.07109   -0.04944    0.00209    0.00886    0.01278    0.04264
   0.05588    0.23751
 kpt# 102, nband= 18, wtk=  0.00347, kpt= -0.2500 -0.2500  0.0833 (reduced coord)
  -3.73281   -2.27815   -2.27812   -2.27762   -0.52126   -0.50417   -0.14776   -0.12985
  -0.09319   -0.07974   -0.05539   -0.04610   -0.00363    0.00828    0.01207    0.05282
   0.05776    0.21334
 kpt# 103, nband= 18, wtk=  0.00694, kpt= -0.1667 -0.2500  0.0833 (reduced coord)
  -3.73281   -2.27814   -2.27812   -2.27763   -0.52455   -0.50482   -0.14042   -0.12361
  -0.09503   -0.08258   -0.05713   -0.03942   -0.00074    0.01029    0.01271    0.04829
   0.05466    0.23323
 kpt# 104, nband= 18, wtk=  0.00347, kpt= -0.1667 -0.1667  0.0833 (reduced coord)
  -3.73281   -2.27814   -2.27812   -2.27763   -0.52965   -0.50629   -0.14008   -0.11563
  -0.08939   -0.08048   -0.04596   -0.03105   -0.00238    0.01022    0.01347    0.04695
   0.05700    0.23644
 kpt# 105, nband= 18, wtk=  0.00116, kpt=  0.1667  0.1667  0.1667 (reduced coord)
  -3.73281   -2.27811   -2.27811   -2.27763   -0.54314   -0.51229   -0.15154   -0.08156
  -0.08156   -0.02837   -0.01355   -0.01355   -0.00417   -0.00417    0.00712    0.06357
   0.06357    0.18557
 kpt# 106, nband= 18, wtk=  0.00347, kpt=  0.2500  0.1667  0.1667 (reduced coord)
  -3.73281   -2.27812   -2.27811   -2.27763   -0.54128   -0.51173   -0.14830   -0.08716
  -0.08124   -0.03310   -0.02732   -0.02273   -0.00154    0.00262    0.01164    0.05598
   0.06220    0.20095
 kpt# 107, nband= 18, wtk=  0.00347, kpt=  0.3333  0.1667  0.1667 (reduced coord)
  -3.73281   -2.27812   -2.27811   -2.27763   -0.53626   -0.50983   -0.14202   -0.10005
  -0.08059   -0.06328   -0.03541   -0.02683   -0.00185    0.00870    0.01586    0.04254
   0.05918    0.22903
 kpt# 108, nband= 18, wtk=  0.00347, kpt=  0.4167  0.1667  0.1667 (reduced coord)
  -3.73281   -2.27814   -2.27812   -2.27763   -0.52889   -0.50726   -0.13822   -0.11430
  -0.08883   -0.07978   -0.04705   -0.03366   -0.00294    0.01022    0.01659    0.03745
   0.05728    0.23640
 kpt# 109, nband= 18, wtk=  0.00347, kpt=  0.5000  0.1667  0.1667 (reduced coord)
  -3.73281   -2.27815   -2.27812   -2.27763   -0.52053   -0.50504   -0.14894   -0.12499
  -0.09413   -0.07904   -0.05622   -0.04687   -0.00403    0.00842    0.01409    0.04197
   0.05725    0.22106
 kpt# 110, nband= 18, wtk=  0.00347, kpt= -0.4167  0.1667  0.1667 (reduced coord)
  -3.73281   -2.27815   -2.27812   -2.27762   -0.51306   -0.50430   -0.16359   -0.13251
  -0.08554   -0.07862   -0.06195   -0.06016   -0.00481    0.00610    0.01038    0.04894
   0.05794    0.20772
 kpt# 111, nband= 18, wtk=  0.00347, kpt= -0.3333  0.1667  0.1667 (reduced coord)
  -3.73281   -2.27816   -2.27812   -2.27762   -0.50975   -0.50448   -0.16915   -0.13536
  -0.07943   -0.07874   -0.06800   -0.06360   -0.00504    0.00509    0.00868    0.05363
   0.05829    0.20215
 kpt# 112, nband= 18, wtk=  0.00347, kpt= -0.2500  0.1667  0.1667 (reduced coord)
  -3.73281   -2.27815   -2.27812   -2.27762   -0.51391   -0.50337   -0.16268   -0.13327
  -0.08863   -0.07925   -0.06118   -0.05972   -0.00449    0.00603    0.01010    0.05439
   0.05795    0.20537
 kpt# 113, nband= 18, wtk=  0.00347, kpt= -0.1667  0.1667  0.1667 (reduced coord)
  -3.73281   -2.27815   -2.27812   -2.27762   -0.52140   -0.50400   -0.14718   -0.12812
  -0.09652   -0.07985   -0.05512   -0.04616   -0.00350    0.00836    0.01238    0.05141
   0.05719    0.21763
 kpt# 114, nband= 18, wtk=  0.00347, kpt=  0.2500  0.2500  0.1667 (reduced coord)
  -3.73281   -2.27812   -2.27811   -2.27763   -0.54111   -0.51195   -0.14702   -0.08712
  -0.08139   -0.03532   -0.02816   -0.02232   -0.00140    0.00247    0.01165    0.05687
   0.06208    0.20393
 kpt# 115, nband= 18, wtk=  0.00694, kpt=  0.3333  0.2500  0.1667 (reduced coord)
  -3.73281   -2.27812   -2.27811   -2.27763   -0.53767   -0.51072   -0.14230   -0.09634
  -0.08125   -0.05424   -0.03411   -0.02871   -0.00029    0.00710    0.01498    0.04847
   0.05837    0.22528
 kpt# 116, nband= 18, wtk=  0.00694, kpt=  0.4167  0.2500  0.1667 (reduced coord)
  -3.73281   -2.27813   -2.27812   -2.27763   -0.53149   -0.50843   -0.13716   -0.10930
  -0.08149   -0.07924   -0.04731   -0.03104   -0.00062    0.01022    0.01652    0.04061
   0.05453    0.24382
 kpt# 117, nband= 18, wtk=  0.00694, kpt=  0.5000  0.2500  0.1667 (reduced coord)
  -3.73281   -2.27814   -2.27812   -2.27763   -0.52365   -0.50592   -0.14127   -0.12125
  -0.09263   -0.08163   -0.05824   -0.04068   -0.00129    0.00989    0.01513    0.04014
   0.05397    0.23458
 kpt# 118, nband= 18, wtk=  0.00694, kpt= -0.4167  0.2500  0.1667 (reduced coord)
  -3.73281   -2.27815   -2.27812   -2.27762   -0.51575   -0.50430   -0.15602   -0.12981
  -0.08909   -0.08068   -0.06697   -0.05340   -0.00170    0.00726    0.01211    0.04592
   0.05458    0.21833
 kpt# 119, nband= 18, wtk=  0.00694, kpt= -0.3333  0.2500  0.1667 (reduced coord)
  -3.73281   -2.27816   -2.27813   -2.27762   -0.51002   -0.50424   -0.16640   -0.13437
  -0.08330   -0.07825   -0.07133   -0.06471   -0.00207    0.00577    0.00936    0.05229
   0.05466    0.20824
 kpt# 120, nband= 18, wtk=  0.00694, kpt= -0.2500  0.2500  0.1667 (reduced coord)
  -3.73281   -2.27816   -2.27813   -2.27762   -0.51068   -0.50353   -0.16593   -0.13445
  -0.08353   -0.08080   -0.07100   -0.06421   -0.00185    0.00570    0.00940    0.05234
   0.05737    0.20739
 kpt# 121, nband= 18, wtk=  0.00694, kpt= -0.1667  0.2500  0.1667 (reduced coord)
  -3.73281   -2.27815   -2.27812   -2.27762   -0.51670   -0.50321   -0.15454   -0.13092
  -0.09220   -0.08252   -0.06573   -0.05343   -0.00122    0.00723    0.01141    0.05010
   0.05779    0.21592
 kpt# 122, nband= 18, wtk=  0.00347, kpt=  0.3333  0.3333  0.1667 (reduced coord)
  -3.73281   -2.27812   -2.27811   -2.27763   -0.53595   -0.51025   -0.13975   -0.10120
  -0.08084   -0.06317   -0.03499   -0.03037   -0.00167    0.00849    0.01503    0.04626
   0.05945    0.23344
 kpt# 123, nband= 18, wtk=  0.00694, kpt=  0.4167  0.3333  0.1667 (reduced coord)
  -3.73281   -2.27813   -2.27812   -2.27763   -0.53136   -0.50859   -0.13620   -0.11119
  -0.08171   -0.07746   -0.04719   -0.03247   -0.00037    0.01001    0.01527    0.04469
   0.05420    0.24681
 kpt# 124, nband= 18, wtk=  0.00694, kpt=  0.5000  0.3333  0.1667 (reduced coord)
  -3.73281   -2.27814   -2.27812   -2.27763   -0.52471   -0.50631   -0.13724   -0.12107
  -0.08873   -0.08456   -0.06173   -0.03836    0.00096    0.01112    0.01390    0.04471
   0.04861    0.24800
 kpt# 125, nband= 18, wtk=  0.00694, kpt= -0.4167  0.3333  0.1667 (reduced coord)
  -3.73281   -2.27815   -2.27813   -2.27762   -0.51728   -0.50430   -0.14704   -0.12854
  -0.09381   -0.08406   -0.07259   -0.04879    0.00193    0.00889    0.01257    0.04394
   0.05017    0.23790
 kpt# 126, nband= 18, wtk=  0.00694, kpt= -0.3333  0.3333  0.1667 (reduced coord)
  -3.73281   -2.27815   -2.27813   -2.27762   -0.51079   -0.50353   -0.15812   -0.13231
  -0.09676   -0.08084   -0.07755   -0.06021    0.00218    0.00648    0.01127    0.04747
   0.05076    0.22569
 kpt# 127, nband= 18, wtk=  0.00694, kpt= -0.2500  0.3333  0.1667 (reduced coord)
  -3.73281   -2.27815   -2.27813   -2.27762   -0.50803   -0.50353   -0.16239   -0.13269
  -0.09802   -0.08435   -0.07108   -0.06953    0.00142    0.00722    0.01001    0.04714
   0.05415    0.22066
 kpt# 128, nband= 18, wtk=  0.00694, kpt= -0.1667  0.3333  0.1667 (reduced coord)
  -3.73281   -2.27815   -2.27813   -2.27762   -0.51160   -0.50266   -0.15719   -0.13105
  -0.09776   -0.08437   -0.07736   -0.06114    0.00241    0.00638    0.01154    0.04429
   0.05718    0.22499
 kpt# 129, nband= 18, wtk=  0.00347, kpt=  0.4167  0.4167  0.1667 (reduced coord)
  -3.73281   -2.27814   -2.27812   -2.27763   -0.52853   -0.50771   -0.13613   -0.11983
  -0.08294   -0.07997   -0.04694   -0.03662   -0.00287    0.00989    0.01430    0.04404
   0.05837    0.23238
 kpt# 130, nband= 18, wtk=  0.00694, kpt=  0.5000  0.4167  0.1667 (reduced coord)
  -3.73281   -2.27814   -2.27812   -2.27763   -0.52350   -0.50608   -0.14060   -0.12661
  -0.08595   -0.08196   -0.05846   -0.04160   -0.00109    0.00974    0.01305    0.04657
   0.05401    0.22675
 kpt# 131, nband= 18, wtk=  0.00694, kpt= -0.4167  0.4167  0.1667 (reduced coord)
  -3.73281   -2.27815   -2.27813   -2.27762   -0.51728   -0.50430   -0.14743   -0.13047
  -0.09201   -0.08290   -0.07275   -0.04856    0.00205    0.00902    0.01160    0.04662
   0.05014    0.23135
 kpt# 132, nband= 18, wtk=  0.00694, kpt= -0.3333  0.4167  0.1667 (reduced coord)
  -3.73281   -2.27815   -2.27813   -2.27762   -0.51118   -0.50316   -0.15211   -0.13267
  -0.10513   -0.08326   -0.07738   -0.05788    0.00390    0.00664    0.01207    0.04460
   0.05049    0.23510
 kpt# 133, nband= 18, wtk=  0.00694, kpt= -0.2500  0.4167  0.1667 (reduced coord)
  -3.73281   -2.27815   -2.27814   -2.27762   -0.50677   -0.50326   -0.15427   -0.13138
  -0.11507   -0.08869   -0.07296   -0.06693    0.00241    0.00869    0.01144    0.04532
   0.04961    0.23309
 kpt# 134, nband= 18, wtk=  0.00694, kpt= -0.1667  0.4167  0.1667 (reduced coord)
  -3.73281   -2.27815   -2.27814   -2.27762   -0.50719   -0.50283   -0.15365   -0.12862
  -0.11735   -0.08826   -0.07515   -0.06803    0.00254    0.00853    0.01185    0.04243
   0.05272    0.23403
 kpt# 135, nband= 18, wtk=  0.00347, kpt=  0.5000  0.5000  0.1667 (reduced coord)
  -3.73281   -2.27815   -2.27812   -2.27763   -0.52029   -0.50529   -0.15001   -0.13086
  -0.08431   -0.07888   -0.05674   -0.04730   -0.00431    0.00818    0.01243    0.04862
   0.05893    0.20704
 kpt# 136, nband= 18, wtk=  0.00694, kpt= -0.4167  0.5000  0.1667 (reduced coord)
  -3.73281   -2.27815   -2.27812   -2.27762   -0.51576   -0.50425   -0.15757   -0.13343
  -0.08283   -0.08007   -0.06728   -0.05256   -0.00188    0.00714    0.01111    0.05144
   0.05540    0.20536
 kpt# 137, nband= 18, wtk=  0.00694, kpt= -0.3333  0.5000  0.1667 (reduced coord)
  -3.73281   -2.27815   -2.27813   -2.27762   -0.51092   -0.50337   -0.15936   -0.13368
  -0.09595   -0.08116   -0.07525   -0.05880    0.00203    0.00643    0.01087    0.04844
   0.05272    0.21657
 kpt# 138, nband= 18, wtk=  0.00694, kpt= -0.2500  0.5000  0.1667 (reduced coord)
  -3.73281   -2.27815   -2.27814   -2.27762   -0.50684   -0.50318   -0.15480   -0.13139
  -0.11521   -0.08864   -0.07246   -0.06628    0.00236    0.00866    0.01137    0.04563
   0.04989    0.23021
 kpt# 139, nband= 18, wtk=  0.00347, kpt= -0.1667  0.5000  0.1667 (reduced coord)
  -3.73281   -2.27814   -2.27814   -2.27762   -0.50422   -0.50422   -0.14835   -0.12923
  -0.12644   -0.09182   -0.07186   -0.07156    0.00209    0.01086    0.01106    0.04494
   0.04766    0.23762
 kpt# 140, nband= 18, wtk=  0.00347, kpt= -0.4167 -0.4167  0.1667 (reduced coord)
  -3.73281   -2.27815   -2.27812   -2.27762   -0.51316   -0.50415   -0.16600   -0.13628
  -0.07794   -0.07751   -0.06314   -0.05787   -0.00545    0.00603    0.00996    0.05450
   0.05965    0.19171
 kpt# 141, nband= 18, wtk=  0.00694, kpt= -0.3333 -0.4167  0.1667 (reduced coord)
  -3.73281   -2.27816   -2.27813   -2.27762   -0.51030   -0.50391   -0.16819   -0.13661
  -0.08107   -0.07678   -0.07063   -0.06237   -0.00255    0.00571    0.00921    0.05554
   0.05619    0.19661
 kpt# 142, nband= 18, wtk=  0.00694, kpt= -0.2500 -0.4167  0.1667 (reduced coord)
  -3.73281   -2.27815   -2.27813   -2.27762   -0.50816   -0.50338   -0.16330   -0.13350
  -0.09779   -0.08431   -0.06991   -0.06796    0.00123    0.00715    0.00990    0.04785
   0.05506    0.21502
 kpt# 143, nband= 18, wtk=  0.00347, kpt= -0.3333 -0.3333  0.1667 (reduced coord)
  -3.73281   -2.27816   -2.27812   -2.27762   -0.51011   -0.50406   -0.17115   -0.13788
  -0.07804   -0.07435   -0.06510   -0.06472   -0.00561    0.00510    0.00865    0.05774
   0.05958    0.18989
 kpt# 144, nband= 18, wtk=  0.00694, kpt= -0.2500 -0.3333  0.1667 (reduced coord)
  -3.73281   -2.27816   -2.27813   -2.27762   -0.51077   -0.50343   -0.16695   -0.13571
  -0.08138   -0.08045   -0.07069   -0.06323   -0.00210    0.00568    0.00931    0.05358
   0.05854    0.20134
 kpt# 145, nband= 18, wtk=  0.00347, kpt= -0.2500 -0.2500  0.1667 (reduced coord)
  -3.73281   -2.27815   -2.27812   -2.27762   -0.51393   -0.50332   -0.16362   -0.13477
  -0.08565   -0.07903   -0.06158   -0.05883   -0.00469    0.00600    0.00997    0.05655
   0.05858    0.19967
 kpt# 146, nband= 18, wtk=  0.00116, kpt=  0.2500  0.2500  0.2500 (reduced coord)
  -3.73281   -2.27811   -2.27811   -2.27763   -0.54264   -0.51299   -0.14752   -0.08144
  -0.08144   -0.03703   -0.01389   -0.01389   -0.00416   -0.00416    0.00761    0.06380
   0.06380    0.19683
 kpt# 147, nband= 18, wtk=  0.00347, kpt=  0.3333  0.2500  0.2500 (reduced coord)
  -3.73281   -2.27812   -2.27811   -2.27763   -0.54076   -0.51244   -0.14420   -0.08772
  -0.08111   -0.03702   -0.03118   -0.02303   -0.00161    0.00252    0.01240    0.05599
   0.06249    0.21204
 kpt# 148, nband= 18, wtk=  0.00347, kpt=  0.4167  0.2500  0.2500 (reduced coord)
  -3.73281   -2.27812   -2.27811   -2.27763   -0.53577   -0.51049   -0.13856   -0.10134
  -0.08043   -0.06282   -0.03573   -0.03180   -0.00196    0.00856    0.01673    0.04193
   0.05958    0.23612
 kpt# 149, nband= 18, wtk=  0.00347, kpt=  0.5000  0.2500  0.2500 (reduced coord)
  -3.73281   -2.27814   -2.27812   -2.27763   -0.52846   -0.50779   -0.13697   -0.11565
  -0.08644   -0.07958   -0.04742   -0.03577   -0.00313    0.01010    0.01696    0.03652
   0.05778    0.23503
 kpt# 150, nband= 18, wtk=  0.00347, kpt= -0.4167  0.2500  0.2500 (reduced coord)
  -3.73281   -2.27815   -2.27812   -2.27763   -0.52022   -0.50540   -0.14974   -0.12639
  -0.09013   -0.07877   -0.05668   -0.04708   -0.00428    0.00836    0.01397    0.04187
   0.05783    0.21660
 kpt# 151, nband= 18, wtk=  0.00347, kpt= -0.3333  0.2500  0.2500 (reduced coord)
  -3.73281   -2.27815   -2.27812   -2.27762   -0.51295   -0.50440   -0.16464   -0.13383
  -0.08215   -0.07828   -0.06250   -0.05928   -0.00510    0.00608    0.01026    0.05004
   0.05856    0.20162
 kpt# 152, nband= 18, wtk=  0.00347, kpt= -0.2500  0.2500  0.2500 (reduced coord)
  -3.73281   -2.27816   -2.27812   -2.27762   -0.50994   -0.50426   -0.17017   -0.13664
  -0.07840   -0.07691   -0.06651   -0.06415   -0.00531    0.00510    0.00866    0.05563
   0.05893    0.19574
 kpt# 153, nband= 18, wtk=  0.00347, kpt=  0.3333  0.3333  0.2500 (reduced coord)
  -3.73281   -2.27812   -2.27811   -2.27763   -0.54059   -0.51268   -0.14276   -0.08779
  -0.08126   -0.03983   -0.03135   -0.02262   -0.00148    0.00237    0.01235    0.05684
   0.06237    0.21560
 kpt# 154, nband= 18, wtk=  0.00694, kpt=  0.4167  0.3333  0.2500 (reduced coord)
  -3.73281   -2.27812   -2.27811   -2.27763   -0.53718   -0.51138   -0.13848   -0.09771
  -0.08110   -0.05387   -0.03455   -0.03418   -0.00033    0.00691    0.01580    0.04793
   0.05883    0.23512
 kpt# 155, nband= 18, wtk=  0.00694, kpt=  0.5000  0.3333  0.2500 (reduced coord)
  -3.73281   -2.27813   -2.27812   -2.27763   -0.53106   -0.50898   -0.13480   -0.11101
  -0.08127   -0.07755   -0.04763   -0.03407   -0.00064    0.00995    0.01701    0.03995
   0.05495    0.24601
 kpt# 156, nband= 18, wtk=  0.00694, kpt= -0.4167  0.3333  0.2500 (reduced coord)
  -3.73281   -2.27814   -2.27812   -2.27763   -0.52332   -0.50630   -0.14132   -0.12293
  -0.08901   -0.08146   -0.05861   -0.04149   -0.00137    0.00974    0.01488    0.04035
   0.05421    0.23132
 kpt# 157, nband= 18, wtk=  0.00694, kpt= -0.3333  0.3333  0.2500 (reduced coord)
  -3.73281   -2.27815   -2.27812   -2.27762   -0.51559   -0.50446   -0.15691   -0.13123
  -0.08588   -0.08018   -0.06729   -0.05298   -0.00186    0.00721    0.01178    0.04711
   0.05490    0.21270
 kpt# 158, nband= 18, wtk=  0.00694, kpt= -0.2500  0.3333  0.2500 (reduced coord)
  -3.73281   -2.27816   -2.27813   -2.27762   -0.51012   -0.50411   -0.16741   -0.13558
  -0.08192   -0.07734   -0.07106   -0.06349   -0.00234    0.00574    0.00928    0.05389
   0.05538    0.20181
 kpt# 159, nband= 18, wtk=  0.00347, kpt=  0.4167  0.4167  0.2500 (reduced coord)
  -3.73281   -2.27812   -2.27811   -2.27763   -0.53548   -0.51086   -0.13627   -0.10279
  -0.08065   -0.06219   -0.03535   -0.03520   -0.00180    0.00838    0.01592    0.04513
   0.05981    0.24260
 kpt# 160, nband= 18, wtk=  0.00694, kpt=  0.5000  0.4167  0.2500 (reduced coord)
  -3.73281   -2.27813   -2.27812   -2.27763   -0.53096   -0.50910   -0.13390   -0.11268
  -0.08144   -0.07595   -0.04762   -0.03526   -0.00047    0.00980    0.01605    0.04284
   0.05481    0.24873
 kpt# 161, nband= 18, wtk=  0.00694, kpt= -0.4167  0.4167  0.2500 (reduced coord)
  -3.73281   -2.27814   -2.27812   -2.27763   -0.52440   -0.50668   -0.13676   -0.12229
  -0.08664   -0.08390   -0.06224   -0.03924    0.00097    0.01082    0.01408    0.04413
   0.04857    0.24727
 kpt# 162, nband= 18, wtk=  0.00694, kpt= -0.3333  0.4167  0.2500 (reduced coord)
  -3.73281   -2.27815   -2.27813   -2.27762   -0.51711   -0.50450   -0.14752   -0.12973
  -0.09238   -0.08245   -0.07312   -0.04855    0.00196    0.00894    0.01206    0.04536
   0.04931    0.23445
 kpt# 163, nband= 18, wtk=  0.00694, kpt= -0.2500  0.4167  0.2500 (reduced coord)
  -3.73281   -2.27815   -2.27813   -2.27762   -0.51080   -0.50351   -0.15892   -0.13320
  -0.09611   -0.08099   -0.07613   -0.05927    0.00207    0.00646    0.01102    0.04833
   0.05134    0.22031
 kpt# 164, nband= 18, wtk=  0.00347, kpt=  0.5000  0.5000  0.2500 (reduced coord)
  -3.73281   -2.27814   -2.27812   -2.27763   -0.52818   -0.50813   -0.13508   -0.12015
  -0.08166   -0.07972   -0.04733   -0.03837   -0.00306    0.00986    0.01509    0.04148
   0.05858    0.23199
 kpt# 165, nband= 18, wtk=  0.00694, kpt= -0.4167  0.5000  0.2500 (reduced coord)
  -3.73281   -2.27814   -2.27812   -2.27763   -0.52324   -0.50639   -0.14087   -0.12600
  -0.08503   -0.08167   -0.05880   -0.04216   -0.00125    0.00964    0.01366    0.04399
   0.05433    0.22691
 kpt# 166, nband= 18, wtk=  0.00694, kpt= -0.3333  0.5000  0.2500 (reduced coord)
  -3.73281   -2.27815   -2.27813   -2.27762   -0.51710   -0.50449   -0.14765   -0.13041
  -0.09183   -0.08187   -0.07325   -0.04848    0.00201    0.00900    0.01170    0.04664
   0.04900    0.23205
 kpt# 167, nband= 18, wtk=  0.00347, kpt= -0.2500  0.5000  0.2500 (reduced coord)
  -3.73281   -2.27815   -2.27813   -2.27762   -0.51112   -0.50323   -0.15229   -0.13302
  -0.10480   -0.08319   -0.07711   -0.05759    0.00389    0.00664    0.01198    0.04506
   0.05005    0.23472
 kpt# 168, nband= 18, wtk=  0.00347, kpt= -0.4167 -0.4167  0.2500 (reduced coord)
  -3.73281   -2.27815   -2.27812   -2.27763   -0.52007   -0.50555   -0.15033   -0.12969
  -0.08439   -0.07868   -0.05698   -0.04751   -0.00444    0.00822    0.01295    0.04571
   0.05879    0.20863
 kpt# 169, nband= 18, wtk=  0.00694, kpt= -0.3333 -0.4167  0.2500 (reduced coord)
  -3.73281   -2.27815   -2.27812   -2.27762   -0.51559   -0.50444   -0.15747   -0.13252
  -0.08370   -0.07983   -0.06744   -0.05269   -0.00193    0.00717    0.01142    0.04911
   0.05521    0.20802
 kpt# 170, nband= 18, wtk=  0.00347, kpt= -0.3333 -0.3333  0.2500 (reduced coord)
  -3.73281   -2.27815   -2.27812   -2.27762   -0.51299   -0.50435   -0.16551   -0.13519
  -0.07922   -0.07802   -0.06294   -0.05845   -0.00534    0.00605    0.01010    0.05206
   0.05918    0.19581
 kpt# 171, nband= 18, wtk=  0.00116, kpt=  0.3333  0.3333  0.3333 (reduced coord)
  -3.73281   -2.27811   -2.27811   -2.27763   -0.54211   -0.51372   -0.14300   -0.08133
  -0.08133   -0.04569   -0.01424   -0.01424   -0.00416   -0.00416    0.00793    0.06402
   0.06402    0.20921
 kpt# 172, nband= 18, wtk=  0.00347, kpt=  0.4167  0.3333  0.3333 (reduced coord)
  -3.73281   -2.27811   -2.27811   -2.27763   -0.54027   -0.51311   -0.13998   -0.08850
  -0.08101   -0.04301   -0.03218   -0.02323   -0.00165    0.00242    0.01285    0.05617
   0.06273    0.22342
 kpt# 173, nband= 18, wtk=  0.00347, kpt=  0.5000  0.3333  0.3333 (reduced coord)
  -3.73281   -2.27812   -2.27811   -2.27763   -0.53534   -0.51104   -0.13531   -0.10288
  -0.08035   -0.06203   -0.03625   -0.03590   -0.00200    0.00844    0.01712    0.04210
   0.05990    0.24225
 kpt# 174, nband= 18, wtk=  0.00347, kpt= -0.4167  0.3333  0.3333 (reduced coord)
  -3.73281   -2.27814   -2.27812   -2.27763   -0.52814   -0.50819   -0.13579   -0.11750
  -0.08383   -0.07950   -0.04761   -0.03775   -0.00322    0.00997    0.01668    0.03715
   0.05824    0.23355
 kpt# 175, nband= 18, wtk=  0.00347, kpt= -0.3333  0.3333  0.3333 (reduced coord)
  -3.73281   -2.27815   -2.27812   -2.27763   -0.52005   -0.50559   -0.15024   -0.12809
  -0.08655   -0.07864   -0.05696   -0.04736   -0.00443    0.00828    0.01352    0.04324
   0.05839    0.21204
 kpt# 176, nband= 18, wtk=  0.00347, kpt=  0.4167  0.4167  0.3333 (reduced coord)
  -3.73281   -2.27812   -2.27811   -2.27763   -0.54014   -0.51329   -0.13877   -0.08868
  -0.08112   -0.04492   -0.03242   -0.02293   -0.00155    0.00230    0.01280    0.05676
   0.06264    0.22682
 kpt# 177, nband= 18, wtk=  0.00694, kpt=  0.5000  0.4167  0.3333 (reduced coord)
  -3.73281   -2.27812   -2.27811   -2.27763   -0.53680   -0.51189   -0.13528   -0.09910
  -0.08099   -0.05309   -0.03890   -0.03457   -0.00035    0.00679    0.01629    0.04764
   0.05915    0.24355
 kpt# 178, nband= 18, wtk=  0.00694, kpt= -0.4167  0.4167  0.3333 (reduced coord)
  -3.73281   -2.27813   -2.27812   -2.27763   -0.53078   -0.50933   -0.13304   -0.11260
  -0.08121   -0.07595   -0.04786   -0.03628   -0.00062    0.00977    0.01705    0.04021
   0.05519    0.24764
 kpt# 179, nband= 18, wtk=  0.00694, kpt= -0.3333  0.4167  0.3333 (reduced coord)
  -3.73281   -2.27814   -2.27812   -2.27763   -0.52317   -0.50648   -0.14116   -0.12465
  -0.08618   -0.08147   -0.05883   -0.04210   -0.00136    0.00965    0.01432    0.04174
   0.05439    0.22852
 kpt# 180, nband= 18, wtk=  0.00347, kpt=  0.5000  0.5000  0.3333 (reduced coord)
  -3.73281   -2.27812   -2.27811   -2.27763   -0.53517   -0.51127   -0.13378   -0.10399
  -0.08048   -0.06133   -0.03845   -0.03568   -0.00191    0.00833    0.01661    0.04393
   0.06004    0.24728
 kpt# 181, nband= 18, wtk=  0.00694, kpt= -0.4167  0.5000  0.3333 (reduced coord)
  -3.73281   -2.27813   -2.27812   -2.27763   -0.53074   -0.50938   -0.13264   -0.11330
  -0.08127   -0.07529   -0.04788   -0.03675   -0.00056    0.00972    0.01669    0.04125
   0.05516    0.24866
 kpt# 182, nband= 18, wtk=  0.00347, kpt= -0.3333  0.5000  0.3333 (reduced coord)
  -3.73281   -2.27814   -2.27812   -2.27763   -0.52429   -0.50681   -0.13657   -0.12276
  -0.08602   -0.08346   -0.06245   -0.03960    0.00097    0.01071    0.01415    0.04383
   0.04865    0.24700
 kpt# 183, nband= 18, wtk=  0.00347, kpt= -0.4167 -0.4167  0.3333 (reduced coord)
  -3.73281   -2.27814   -2.27812   -2.27763   -0.52804   -0.50831   -0.13501   -0.11924
  -0.08197   -0.07955   -0.04758   -0.03880   -0.00319    0.00989    0.01595    0.03900
   0.05853    0.23242
 kpt# 184, nband= 18, wtk=  0.00116, kpt=  0.4167  0.4167  0.4167 (reduced coord)
  -3.73281   -2.27811   -2.27811   -2.27763   -0.54171   -0.51427   -0.13926   -0.08125
  -0.08125   -0.05224   -0.01449   -0.01449   -0.00416   -0.00416    0.00809    0.06419
   0.06419    0.21984
 kpt# 185, nband= 18, wtk=  0.00347, kpt=  0.5000  0.4167  0.4167 (reduced coord)
  -3.73281   -2.27811   -2.27811   -2.27763   -0.53995   -0.51355   -0.13697   -0.08923
  -0.08098   -0.04702   -0.03262   -0.02328   -0.00164    0.00234    0.01305    0.05641
   0.06285    0.23211
 kpt# 186, nband= 18, wtk=  0.00347, kpt= -0.4167  0.4167  0.4167 (reduced coord)
  -3.73281   -2.27812   -2.27811   -2.27763   -0.53512   -0.51133   -0.13341   -0.10402
  -0.08037   -0.06129   -0.03884   -0.03588   -0.00198    0.00836    0.01705    0.04285
   0.06007    0.24636
 kpt# 187, nband= 18, wtk=  0.00347, kpt=  0.5000  0.5000  0.4167 (reduced coord)
  -3.73281   -2.27811   -2.27811   -2.27763   -0.53990   -0.51361   -0.13649   -0.08933
  -0.08102   -0.04769   -0.03273   -0.02317   -0.00161    0.00230    0.01303    0.05662
   0.06282    0.23381
 kpt# 188, nband= 18, wtk=  0.00347, kpt= -0.4167  0.5000  0.4167 (reduced coord)
  -3.73281   -2.27812   -2.27811   -2.27763   -0.53666   -0.51207   -0.13400   -0.09972
  -0.08095   -0.05259   -0.04076   -0.03465   -0.00037    0.00674    0.01645    0.04755
   0.05926    0.24713
 kpt# 189, nband= 18, wtk=  0.00058, kpt=  0.5000  0.5000  0.5000 (reduced coord)
  -3.73281   -2.27811   -2.27811   -2.27763   -0.54156   -0.51447   -0.13777   -0.08122
  -0.08122   -0.05471   -0.01458   -0.01458   -0.00416   -0.00416    0.00816    0.06425
   0.06425    0.22468
